57197568
57164544
57111296
57013504
56991744
57059584
57037312
56986368
56935936
56939264
56956672
56911360
56859904
56859392
56861952
56784128
56718592
56657152
56627200
56648192
56669184
56681216
56658432
56662528
56665856
56688640
56852480
56813568
56966912
57100032
56980992
56967168
57001728
57044992
57018368
57239552
57563392
57495552
64199168
69845760
68504576
66799872
58053888
57608704
58294528
58348032
60519168
58763520
57063936
56931328
58528768
61932032
58711040
57745152
56946688
56866304
56792832
56913664
57054464
57043456
56928000
57318144
57172224
58348800
61132544
58870272
57103872
56933632
56921088
56813312
56675072
56672512
56742400
56672256
56500736
56412160
56367872
56351488
56212480
56016128
55907328
55864064
55851520
55724544
55708928
55660800
55664384
55599872
55581696
55594496
55689472
55681792
55569920
55448832
55422208
55687424
55898624
55191552
54946304
54777600
54551040
54440704
54906112
55800576
57075712
58562560
60189440
61669376
62464256
61828352
60163328
58048256
55856640
54590464
53911296
53790720
53925888
54099968
54217984
54302464
54364416
54457344
54496256
54525184
54574592
54599680
54628352
54626560
54640896
54702592
54749440
54718208
54701568
54621696
54418176
54403840
54560000
54626816
54676992
54683392
54697984
54694656
54770432
54806272
54834176
54881024
54904832
54960128
55034880
55094016
55189504
55259136
55219200
55256064
55324160
55393792
55489280
55539712
55579904
55641856
55685888
55735296
55852032
55879424
55875072
55866880
55811584
55787008
55752960
55701248
55548672
55453440
55329280
55131392
54973952
54828288
54608640
54384640
54185216
53976576
53747712
53560832
53400832
53250304
53116416
53011712
52915456
52786944
52690432
52601600
52495104
52517632
52514560
52397568
52342016
52302592
52292864
52306432
52304896
52334336
52365568
52323328
52290304
52303872
52348928
52363264
52283136
52314624
52273664
52225024
52248832
52291072
52298496
52283648
52276480
52276992
52327168
52287232
52265984
52290304
52272896
52218112
52183808
52173312
52213248
52231680
52162304
52172544
52152320
52114688
52133888
52128768
52066816
52103168
52113152
52044288
52061952
52032768
52074240
52068864
52010240
52013312
52017664
52001792
51985664
51962112
51989504
52005120
51965696
51885312
51814400
51847424
51832320
51870208
51849472
51849728
51761152
51749376
51787008
51739648
51727872
51695360
51689728
51670528
51679488
51697152
51704832
51726848
51781376
51846656
51852032
51775488
51757312
51785216
51863552
51940608
51908864
51883520
51899136
51896832
51805184
51749376
51706368
51595264
51517440
51458560
51415808
51301376
51146752
51122432
51145984
51125248
51146752
51114240
51098624
51054592
50974720
50951936
50987520
50968832
51007488
50985472
50933248
50887936
50793728
50803712
50637312
50387712
50230784
50628096
51517184
52727296
54283776
56090112
57670144
58657280
58194432
56523520
54466048
52259328
50779136
50014976
49800192
49851904
50006784
50117120
50301440
50357504
50343168
50459904
50459136
50426112
50405632
50391808
50471680
50520320
50525952
50469632
50497792
50527232
50521856
50461952
50440192
50474752
50501888
50546432
50536448
50607360
50605568
50630144
50641152
50663424
50723072
50765312
50793472
50840064
50886400
50929408
50940416
51009280
51119360
51145472
51199744
51348736
51447552
51456000
51545344
51651328
51708672
51666176
51693568
51750656
51842816
51876352
51830272
51721984
51684096
51598080
51569664
51499776
51404288
51228160
51126272
51020544
50832128
50729472
50502656
50392064
50296064
50127616
50024192
49892864
49790976
49698560
49576960
49489920
49539840
49462784
49438464
49409536
49394944
49433088
49382400
49368832
49432576
49473280
49504256
49430528
49476608
49456128
49512960
49452288
49386752
49361664
49358848
49396992
49340928
49337600
49355008
49296896
49268480
49270528
49201152
49187328
49165568
49105920
49152000
49180160
49173504
49115392
49136640
49160704
49151744
49063680
48972544
48911104
48931840
48877824
48866560
48931840
48942080
48932096
48881408
48875520
48887040
48917248
48998400
48850688
48825600
48751872
48801536
48758784
48741888
48674816
48797696
48729088
48671232
48596992
48568064
48555776
48568320
48584704
48656384
48652800
48634880
48612096
48587008
48621312
48558592
48536832
48545536
48511232
48494080
48519424
48550912
48572672
48571904
48514048
48428032
48447744
48397568
48327936
48342528
48267520
48276736
48281344
48317440
48321280
48310016
48361472
48485376
48531712
48635648
48676864
48738304
48824320
48973568
49090560
49181440
49259008
49429248
49560064
49660928
49818624
49932800
50098432
50110720
50176768
50467584
51102208
52089088
53411840
54972160
56713984
58108928
58488832
57250816
55340800
53616640
52053760
51115776
50682624
50518272
50581504
50998272
51295744
51550976
51928576
52235008
52406272
52509952
52760576
52961536
52992256
53056000
53097216
53106176
53139968
53261056
53315072
53409280
53579008
53544960
53672448
53702656
53806592
53978880
54062592
54085376
54040320
54083840
54090752
54144512
54163456
54228480
54350592
54422272
54436608
54533888
54675712
54756352
54848000
54927872
55049728
55139328
55204864
55273472
55380224
55480064
55588096
55668480
55741184
55767552
55741184
55792640
55818752
55801856
55757824
55705344
55656704
55585792
55528448
55386880
55320832
55244032
55104000
54984960
54862336
54755840
54683904
54598656
54605824
54564352
54516480
54475008
54433024
54421760
54429440
54426880
54460416
54514944
54600448
54649600
54702080
54766336
54790400
54799872
54799872
54850048
54891264
54899456
54888960
54901248
54940928
54948608
54974720
55011840
54978048
54980352
54944000
54945792
54929152
54911488
54926336
54917120
54911488
54913024
54862080
54831872
54826240
54819072
54824192
54832128
54822400
54791680
54782208
54774016
54796800
54798080
54807040
54800640
54800128
54790656
54795520
54824960
54821120
54840320
54871552
54862080
54845696
54864640
54865152
54913792
54973696
54981376
54954752
54998016
55048704
55072512
55044864
55106560
55147264
55157248
55221248
55276032
55262208
55269632
55301376
55378176
55444224
55523072
55618816
55669504
55705088
55714816
55696640
55650304
55608832
55569920
55500288
55432192
55400448
55346688
55294208
55259392
55264512
55276288
55218944
55201792
55237376
55264000
55286016
55286272
55311104
55316480
55270144
55265792
55305984
55290368
55256064
55213824
55245056
55154432
54974720
54902784
55172608
55882496
56986368
58364672
59926784
61413888
62337792
62333952
61083136
59470848
57424384
55984640
55178240
54790144
54792704
54881536
54986752
55125760
55311872
55490304
55570176
55691776
55774464
55773952
55796480
55803904
55783680
55833088
55880448
55882240
55920640
55982080
56036096
56062464
56072704
56124416
56179712
56213248
56222464
56217344
56289280
56370176
56405504
56482560
56575488
56609280
56611072
56656640
56755456
56886016
56953088
57046016
57134080
57222144
57334272
57440768
57577728
57648896
57718784
57806848
57884160
57980416
58052864
58111744
58161408
58146560
58087424
58085632
58088448
58008320
57936896
57853440
57716480
57560320
57452032
57324288
57185280
57036800
56891392
56752128
56644608
56541696
56494336
56407552
56357376
56320256
56279552
56199168
56144896
56113152
56094720
56059648
56080896
56105472
56091648
56100864
56130816
56152832
56206592
56218880
56212224
56221440
56238848
56222208
56249088
56294656
56329984
56385536
56419328
56419072
56436992
56446720
56472576
56480000
56463104
56511488
56529664
56511232
56507392
56511232
56469760
56477952
56474880
56497920
56524800
56553472
56538368
56503552
56508416
56534272
56515072
56514816
56524544
56549888
56569600
56539904
56516352
56496384
56536320
56584448
56646656
56622848
56592896
56632320
56599296
56599296
56653568
56699648
56704768
56645120
56585472
56685824
56754688
56779008
56836864
56854528
56870912
56855552
56854784
56929024
57007872
57096960
57143296
57214976
57259520
57187072
57143040
57185536
57138176
57145856
57138944
57015296
56932608
56912896
56833792
56800000
56769536
56766208
56804096
56813056
56812032
56789504
56814592
56846080
56840960
56858624
56857344
56905728
56897536
56875776
56860928
56887552
56790272
56699136
56622080
56643840
56987392
57686016
58757888
60174592
61735168
63039232
63805184
63727872
62391296
60774656
58898944
57565440
56667136
56295424
56304896
56381440
56495616
56637952
56805888
56990976
57118720
57182208
57262080
57297152
57255936
57349632
57336320
57290496
57283072
57327616
57391360
57389312
57402880
57443328
57475328
57505280
57538048
57600512
57608448
57648384
57688576
57741568
57784576
57844480
57921792
57999104
58056448
58088960
58145536
58180096
58234112
58342144
58442496
58540288
58642176
58739968
58844672
58977280
59082752
59195904
59305984
59356928
59399168
59435264
59470336
59481088
59494400
59450624
59369984
59347200
59286784
59217664
59072256
58878720
58704896
58568960
58438912
58318848
58192128
58078464
57976576
57895680
57806336
57697792
57618176
57579264
57545216
57511680
57461760
57463040
57457152
57435904
57421568
57435904
57410304
57416704
57448960
57491200
57534208
57557760
57596416
57612288
57677824
57718784
57793536
57849600
57826560
57816576
57875200
57874176
57847296
57851136
57890560
57898240
57891072
57885440
57900288
57929728
57944320
57931520
57914368
57860608
57842432
57843968
57847552
57859840
57838336
57846528
57834240
57804544
57789952
57798400
57787392
57791488
57828864
57785856
57757952
57787904
57813760
57858560
57889024
57817344
57754368
57760000
57821184
57873152
57855488
57814528
57831936
57861376
57883648
57922560
57944320
57974272
57992704
58008832
58020864
58049792
58087168
58165248
58262016
58273280
58270976
58263040
58233856
58214912
58149120
58077440
58023168
57998848
57990656
57934848
57897728
57815552
57749504
57729024
57719552
57690112
57680128
57674496
57722880
57731328
57703680
57690880
57657344
57662464
57682944
57685248
57668352
57692928
57604608
57427712
57216768
57194752
57616384
58538752
59788800
61256448
62768640
64037888
64899840
64773120
63395584
61529344
59499008
58057728
57254656
57094400
57273344
57424896
57627392
57795840
57855744
57886976
57940480
57992192
57986560
58005504
58029824
58069504
58083328
58123008
58203392
58235392
58199040
58194432
58182144
58168832
58160896
58209280
58238464
58255616
58278144
58303488
58356736
58406400
58467584
58443776
58478848
58580224
58696448
58750976
58832384
58896640
58959616
59044608
59162880
59281664
59405312
59456256
59586816
59755264
59880192
59934720
60042496
60118016
60177152
60272384
60299008
60295936
60269824
60286976
60269056
60198912
60092160
59963392
59836672
59681024
59522560
59344640
59201792
59033088
58845184
58684928
58579712
58487808
58421248
58321152
58233088
58170368
58116352
58109952
58110720
58110976
58126336
58111232
57985536
57967104
57964800
57975296
58007808
58044672
58034176
57972480
57934848
57977600
58045696
58079488
58087680
58112512
58112768
58193664
58212352
58195200
58129920
58096640
58171648
58248192
58241792
58197760
58115072
58159104
58167296
58209024
58194944
58165504
58143232
58186240
58201856
58225152
58201088
58171904
58182656
58167040
58145792
58127872
58163200
58153472
58090240
58083584
58115072
58141952
58169088
58152192
58154752
58155008
58144768
58156032
58144000
58108160
58126592
58125824
58091776
58121728
58158336
58230016
58289152
58336768
58364416
58387200
58363648
58340864
58322432
58407424
58512896
58530560
58565120
58579456
58568448
58544896
58545408
58532608
58474240
58408960
58418944
58335488
58280192
58234880
58164736
58121216
58112512
58101760
58062336
58062080
58104064
58078208
58090752
58113280
58080256
58069504
58098432
58090752
58096896
58131712
58118144
58089216
58032384
57870080
57659648
57686784
58213632
59185664
60472576
62004480
63524864
64739840
65549824
65116928
63622144
61607680
59600896
58281728
57602560
57580032
57743360
57895680
58085376
58231808
58314496
58314496
58347520
58424064
58465280
58507520
58496768
58502400
58565888
58574336
58606592
58638336
58674688
58689280
58692864
58698240
58727424
58766336
58772992
58795520
58854400
58900736
58931200
58972672
59012352
59100416
59170816
59216640
59301632
59395328
59477248
59535104
59574528
59661568
59814656
59935232
60059904
60170752
60280320
60393472
60489728
60634368
60733952
60827136
60884992
60934400
60969984
60980224
60958208
60916992
60881152
60829696
60753664
60620800
60458496
60307456
60167168
60012544
59857664
59686656
59521792
59370240
59258368
59134720
58994432
58908928
58863360
58814720
58758400
58720512
58703360
58694912
58686464
58669056
58650880
58645504
58625792
58644992
58671104
58648576
58649088
58687232
58672384
58691328
58724608
58732800
58756352
58771712
58786816
58798080
58806272
58853120
58881792
58846720
58853120
58865152
58877952
58880256
58880512
58892544
58903040
58921472
58883584
58859008
58859008
58851072
58824960
58842624
58848256
58850304
58853120
58854400
58811648
58749440
58696704
58697472
58736640
58757376
58742528
58774016
58823424
58789120
58737408
58682368
58665728
58664704
58654720
58679296
58652928
58653440
58604288
58556160
58563072
58567424
58559232
58526720
58517760
58562048
58626560
58664960
58720512
58723840
58764800
58755072
58700544
58758656
58803200
58814208
58877952
58896128
58908672
58895872
58897152
58849024
58805248
58768896
58691328
58605056
58541056
58443520
58355968
58330624
58309632
58230784
58190336
58231040
58235648
58214656
58249472
58340096
58313472
58260736
58180608
58192640
58191360
58251520
58308608
58312448
58243840
58041856
57846016
57806336
58225152
59057408
60308736
61865216
63538176
65011200
65981696
65627392
64024576
61950208
59728640
58286592
57606912
57517824
57692672
57809920
57941760
58117120
58247680
58281472
58336256
58368768
58384640
58390528
58388992
58418944
58406400
58426624
58494208
58454528
58445568
58485504
58538496
58547968
58574080
58584064
58560000
58560768
58661632
58651136
58734848
58747392
58780672
58826752
58860032
58904576
58965248
59031296
59078912
59122176
59198720
59322880
59419648
59497216
59600384
59671808
59796224
59890944
59972608
60101376
60197632
60250112
60270080
60318976
60358400
60372736
60300032
60257536
60237568
60195072
60112128
60015360
59939328
59808768
59648512
59504640
59357952
59218176
59085056
58971648
58902784
58810624
58685952
58607360
58529024
58539008
58528000
58470912
58423296
58409728
58456064
58489088
58427904
58380288
58406144
58394112
58420736
58447104
58488064
58512384
58510592
58529536
58598144
58662656
58699776
58716160
58730240
58750720
58757376
58743296
58764288
58746624
58731264
58764800
58801920
58790400
58771456
58759424
58810368
58759424
58715648
58787840
58803456
58740480
58731520
58765824
58788352
58793984
58766592
58779904
58775552
58754816
58734336
58728192
58708736
58752768
58735872
58705664
58679552
58663680
58684160
58679808
58638592
58644736
58652928
58660864
58672128
58611200
58620928
58610944
58624256
58642944
58611200
58649344
58637312
58554368
58570752
58582016
58582784
58542848
58557184
58535424
58597120
58679296
58721280
58723072
58739712
58702336
58666752
58615040
58666240
58807040
58930688
58987264
59001600
59002112
58968320
58961664
58915328
58883072
58802944
58711040
58626304
58618624
58598656
58525952
58497792
58481152
58439936
58400256
58420992
58433536
58389504
58412800
58427904
58438656
58470656
58437888
58498816
58515456
58535680
58471936
58472960
58398720
58242560
58043136
58074880
58464256
59302912
60478208
62059008
63834112
65405184
66274048
65603328
63886336
61898752
59920384
58678272
57960704
57778432
57931264
58209280
58357504
58420480
58424064
58519808
58656768
58743552
58784768
58854656
58912256
58915072
58933760
58900992
58890240
58960128
59013376
58986240
58959616
58951424
58945280
59035136
59076864
59041536
59074560
59094784
59170560
59248896
59240960
59249408
59350784
59435264
59483904
59531008
59620864
59668736
59608320
59628544
59795200
59921152
59972608
60026624
59997952
60097024
60256256
60322560
60426496
60474880
60575488
60614400
60618240
60500480
60365824
60410880
60450816
60394496
60256256
60250880
60121344
59971584
59883264
59726080
59614720
59452160
59244288
59086080
59097856
59092992
58967296
58888192
58818048
58699776
58609408
58606592
58532352
58535936
58569984
58576128
58546176
58562560
58583552
58609664
58605824
58583040
58656768
58684160
58654464
58712576
58792448
58790144
58737408
58703360
58818560
58860288
58859776
58801664
58847744
58909952
58943232
58898944
58866432
58895872
58918912
58941696
58978304
58971136
58990848
58996224
58980864
58974208
58896384
58901504
58886656
58870784
58873600
58882048
58898944
59014656
58993920
59009024
59048192
59039232
58959616
58957312
58958080
59001088
59036416
59011840
59019008
59050496
59040512
59043072
58994432
58953984
58912000
58962688
58998784
59040512
59019520
59017216
59031040
58993664
59049216
59120640
59134464
59063552
59046656
59057408
58967552
58988288
59133184
59207936
59249408
59218944
59055104
58975232
59164416
59284480
59388928
59434240
59488512
59580416
59625728
59601152
59615232
59656960
59597312
59423232
59350528
59319296
59361280
59340288
59305216
59272960
59195904
59124224
59053056
58981120
59098624
59246080
59121920
59121664
59189760
59255808
59202816
59203328
59238400
59219968
59229184
59261696
59220736
59159040
59005184
58992128
59256320
59793408
60697600
61963264
63364608
64754432
65627392
65886976
64916224
63275776
61621504
60071424
59198976
58534144
58391040
58597376
58701312
58804480
58852608
58973696
59060224
59172352
59263232
59376384
59436800
59476992
59494400
59503872
59486208
59544576
59654400
59630592
59602688
59607296
59676672
59829760
59822592
59756544
59783680
59878400
59881216
59855104
59951104
60013312
60157696
60144896
60073472
60059136
60221440
60289792
60259328
60350976
60458240
60557824
60632576
60751104
60826368
60856320
60889088
61063168
61078272
61083136
61218304
61269760
61361920
61352960
61319936
61242880
61154304
61039360
61001728
61029120
60976128
60808960
60688896
60587776
60517888
60474624
60344576
60124928
59994624
59916800
59671296
59669248
59644160
59598080
59661312
59600640
59506432
59502080
59480576
59482624
59509504
59481088
59493376
59535104
59544320
59553536
59525888
59546368
59594496
59719424
59721472
59651328
59526400
59536128
59645952
59810304
59817728
59814144
59853312
59729152
59692544
59771392
59603712
59639040
59675392
59650816
59596288
59548672
59527168
59429376
59379712
59334144
59254784
59409152
59422464
59320320
59265536
59282432
59124224
59226624
59332608
59336704
59310848
59182592
59150848
59140864
59186688
59086848
59200512
59198208
59198464
59237376
59254528
59143680
59131392
59103488
59246336
59237120
59176192
59162112
59202816
59068672
58935552
59045376
58939904
59047936
59045632
59116032
59354112
59408128
59280896
59089408
59185920
59228160
59218688
59101440
59206144
59248128
59168512
59106816
59182080
59304448
59481088
59661056
59665920
59635712
59546112
59370240
59408640
59260672
59184128
59354624
59266560
59180288
59109120
59115776
59080960
58986752
58940928
58896384
58980864
59074816
59059968
58937088
58900736
58897408
58931456
58899968
58795520
58813952
58939648
58926592
58847488
58799360
58753280
58477312
58392064
58670080
59353856
60407296
61733376
63224832
64571904
65394176
65250304
63936512
62431488
60660480
59377408
58613248
58174720
58241792
58450432
58455808
58444800
58625280
58715648
58866432
58941952
58924288
58936576
58968576
59061504
59161856
59169024
59025408
59038720
59166208
59221248
59235840
59193600
59181568
59194624
59181312
59294720
59363328
59332352
59341568
59385088
59396096
59381760
59586048
59581696
59576064
59600640
59725568
59760896
59888384
60080128
60206336
60142336
60222464
60313344
60430592
60434688
60411136
60578048
60795392
60957952
61002752
60960512
60972544
61126144
61077504
61010944
60989696
60957696
60907776
60858112
60737536
60660480
60631040
60479488
60290560
60083456
59881216
59715584
59737600
59697920
59611136
59427584
59305472
59322880
59356160
59245824
59180032
59095040
58997248
58971136
59048448
59092480
59150848
59113728
59114240
59149056
59159552
59171840
59140864
59183360
59264512
59241216
59247360
59325696
59434496
59446784
59439104
59406336
59472128
59478784
59488512
59460608
59435264
59422464
59389696
59345408
59314176
59300864
59285760
59407872
59331584
59207936
59223552
59192576
59227904
59245056
59188224
59151104
59234560
59246848
59177728
59001344
58887936
59103488
59171840
59144448
59166208
59208192
59221248
59215104
59065856
58941952
58853376
58937600
59174400
59173632
59057664
59127040
59185408
59162880
59120384
59083776
59096832
59056384
59045632
59053056
59120384
59146240
59102208
59138048
59158784
59149312
59223040
59254272
59318784
59166208
59000320
59076096
59348992
59408896
59580160
59677184
59692544
59597568
59571968
59612160
59454464
59363328
59159808
59082752
59104000
59097856
59047680
58925312
58929408
58961920
59036160
58983680
59004416
58867200
58819072
58863104
58903808
58953472
58848768
58826240
58816000
58831104
58958848
58868992
58781440
58795776
58839552
58751744
58888448
59570432
60784896
62282496
63793920
65052672
65865728
65523200
64196608
62597632
60669440
59235328
58399744
58250240
58321408
58327808
58381568
58491136
58663680
58866176
59106560
59183872
59101696
59162624
59346688
59444480
59445504
59353088
59372032
59342336
59347200
59383040
59450880
59534848
59512064
59560960
59636736
59658496
59534592
59477504
59507456
59525632
59571712
59677952
59796992
59822080
59838208
59845888
59948544
60053760
60144384
60182272
60217856
60320512
60493056
60488960
60536576
60676864
60857344
60995328
61168128
61283328
61262592
61246720
61246208
61269504
61189632
61196800
61227008
61125376
60993024
60957696
60897792
60790528
60630528
60482560
60616448
60724224
60608256
60225792
59702784
59376640
59334400
59315968
59542784
59606272
59309056
59151872
59132416
59088128
59110912
59165952
59173632
59040768
58988288
59024640
59010560
59246592
59393792
59404800
59374080
59521280
59686912
59854592
59855616
59438848
59236864
59139072
59183360
59125760
59153152
59244800
59198464
59190528
59364096
59432192
59342336
59368960
59376896
59398144
59321344
59280384
59314944
59317760
59332352
59396096
59363840
59269376
59200256
59060224
59115776
59151872
59160832
59137536
59189504
59177728
59134208
59078656
58969600
58972928
59036160
59136512
59276544
59276288
59159296
59094528
59064320
59064320
59117312
59175424
59139840
59121920
59141888
59145216
59152896
59197184
59207168
59141120
59248640
59243008
59230720
59242496
59185408
59192576
59245824
59261696
59333888
59373568
59475200
59564544
59551744
59539200
59630848
59552512
59472896
59473664
59409152
59376384
59367424
59286528
59249920
59163648
59149568
59151616
59019008
58908160
58924544
59044096
59209728
59245056
59303424
59220736
58970112
58868992
58840576
58876160
58950144
58959360
59006464
58949632
58687488
58499840
58536192
59086080
60032256
61331712
62880000
64481536
65705216
66178816
65406720
63846656
61880320
60137728
59174144
58597120
58508800
58585344
58617088
58706176
58928896
59058688
59101952
59233792
59265536
59086080
58923008
59017472
59386112
59547136
59467520
59354880
59259392
59185664
59110400
59200512
59398400
59475456
59434752
59457024
59486208
59472384
59478272
59445248
59532032
59758080
59717376
59709440
59776000
59767552
59792128
59858176
60048128
60219136
60199168
60041728
60065280
60402688
60614400
60845568
60898816
60917504
60891648
60865024
60876544
61024000
61232896
61249024
61192448
61111808
61139712
61271296
61291520
61165056
60943872
60729856
60348672
60290560
60432384
60332032
60172544
59966464
59631104
59456256
59399936
59509248
59593472
59433728
59301632
59281408
59418368
59438592
59246592
59151104
59138304
59078656
59112704
59133952
59233024
59186944
59101952
59164160
59184128
59414784
59573760
59358208
59193344
59288064
59312640
59401728
59511296
59507968
59495936
59414528
59379968
59419648
59507456
59546368
59454976
59331072
59398656
59390208
59499264
59634688
59616000
59536128
59403776
59275776
59211520
59193856
59403264
59480832
59427072
59314688
59194112
59138560
59118080
59110400
59246336
59254528
59277056
59418112
59285760
59127296
59112960
59180032
59265536
59285504
59301888
59274240
59228416
59098624
58942208
59009280
59309824
59339520
59243008
59148544
59182848
59187200
59228416
59308544
59350784
59261696
59079936
59074560
59475968
59559680
59540224
59527168
59554816
59585792
59632128
59665408
59543552
59258368
59195136
59304960
59400704
59371776
59267840
59183360
59087360
59001600
58923520
58986752
59059712
59020800
58881792
58848768
58802432
59036416
59189248
59100928
59040768
58943232
58976768
58974208
58945024
58881536
58744320
58577408
58478848
58719744
59325952
60201472
61519616
63190784
64839680
66034432
66288384
65243648
63590912
61595648
59735808
58631680
58257408
58486272
58640128
58693632
58836736
58985472
58974976
58941184
59073024
59160576
59223296
59253248
59313152
59289344
59131648
59126016
59269120
59249152
59221760
59282176
59297792
59433984
59456768
59424512
59444224
59448320
59355136
59339520
59563264
59662848
59481344
59536640
59670272
59834112
59984640
60009472
59877888
59763456
59759616
59919872
60129536
60319488
60455936
60468736
60502528
60643840
60746752
60823296
60912128
60874240
60826112
60935680
61024768
61071104
61056000
61048064
61021440
60947456
60771584
60623104
60467200
60343552
60285952
60144896
60058624
59931392
59918848
59675392
59451136
59565312
59564800
59515392
59314944
59119616
59072256
58906368
58821632
58806272
58971136
59067904
59082240
59078144
59045888
59081472
59011584
58929920
58967552
59029760
59172352
59412736
59427840
59404544
59295488
59182848
59174656
59279616
59287552
59294976
59320576
59297792
59218432
59154176
59247616
59307008
59358464
59355136
59281920
59147776
59073792
59207168
59236352
59243520
59206656
59110912
59045120
59117312
59200000
59243264
59232256
59237120
59201792
59141888
59118848
59118080
59159296
59168768
59132160
59081216
58979328
58999808
59104000
59149056
59202048
59165184
59151872
59080704
59099392
59205632
59279360
59308032
59279616
59302912
59310592
59369216
59324672
59221504
59089152
59136000
59182848
59235840
59271680
59355136
59387392
59443200
59479552
59582464
59708928
59707904
59628544
59587840
59492352
59440384
59354112
59241472
59251456
59148288
59031296
59056128
59039744
59033856
59116288
59154688
59028992
59001600
59067136
59036160
59011840
59005952
59072512
59050496
59040256
59017472
59007488
59078912
58970624
58709760
58627584
58800128
59485184
60589056
62137600
63889152
65441792
66491136
66149120
64551424
62757888
60763136
59408128
58752768
58474496
58547968
58568192
58691840
58856704
58910208
59010816
59040768
59068416
59095552
59070720
59128320
59186944
59260416
59251968
59205632
59210752
59306240
59238656
59114240
59362304
59553536
59514624
59442432
59404288
59496960
59538176
59467776
59498752
59589376
59630592
59580416
59571456
59601408
59719168
59816704
59866624
59922944
59995392
59976960
60093952
60250880
60396800
60499456
60680704
60852736
60819456
60828416
60881664
61075968
61160448
61079040
60947200
60864000
60795904
60792832
60799232
60796672
60764672
60612608
60353280
60087552
60068608
60089344
60071936
59985664
59886592
59879424
59791872
59610112
59414272
59407616
59453440
59593472
59812608
59928576
59635456
59128576
58706176
58682624
58759168
59098112
59479296
59603968
59552512
59285248
59104000
59215104
59409920
59446016
59435264
59533824
59508736
59452160
59488000
59522048
59498752
59512064
59543808
59605248
59576064
59502080
59492096
59468032
59461376
59538432
59593472
59589120
59545600
59510784
59484160
59357440
59260416
59479808
59608832
59426048
59342080
59264512
59283712
59331584
59430400
59459072
59392000
59422464
59416320
59366144
59269632
59182080
59268096
59392000
59413760
59434240
59356160
59163392
59136768
59377664
59451136
59398144
59382272
59322880
59310336
59373568
59383296
59439104
59409920
59351040
59365120
59405568
59402240
59467264
59575552
59674368
59779072
59729152
59636736
59543040
59428608
59313664
59411200
59547648
59631360
59531520
59234304
58873600
58949632
59065088
59127296
59090944
59037184
58930176
58844416
58896384
59071232
59081984
59002880
59069952
59053312
58996480
59030272
59177472
59109888
58834176
58519552
58494976
58995968
59879424
61211392
62837504
64519424
66046464
66428672
65276928
63633408
61853952
60092416
58964480
58359040
58217728
58448384
58568192
58630656
58714624
58801664
58913536
59045120
59109888
59180032
59133696
59129344
59241984
59264000
59241984
59396096
59435776
59396864
59385600
59364864
59392512
59429120
59475968
59597568
59656960
59709184
59731200
59624960
59409664
59457024
59645952
59720448
59656448
59669504
59821568
59973632
60004864
59982080
60081664
60160256
60226560
60312320
60371200
60508672
60578816
60635136
60757248
60817408
60871424
60931072
60947968
60846592
60886528
60937984
60861696
60819968
60835328
60884224
60878080
60957952
60880640
60418560
59947264
59840256
59765760
59608064
59505152
59473152
59542272
59523584
59345664
59213312
59196416
59249152
59359744
59417088
59394304
59382272
59257856
59220992
59425024
59573248
59501568
59475968
59459328
59343616
59340288
59320064
59297024
59232256
59310592
59394560
59399168
59396096
59425792
59425024
59333376
59273728
59345664
59320576
59263744
59352576
59349248
59290112
59219968
59180032
59202816
59212800
59178240
59241216
59174144
59055872
59037696
59013888
58968832
58978304
59049728
59090432
59109376
59152896
59101952
59015936
58977792
58947840
59004928
59075584
59075840
58994688
58974208
58887680
58811392
58883072
59000576
58978816
58941952
59058432
59077376
58967552
58968832
58965248
58908928
58960640
59091968
59181312
59208960
59219200
59293184
59374336
59507456
59507456
59451904
59311360
59228160
59182592
59090688
59057920
59005440
59029504
58906880
58808576
58819328
58930944
58918912
58851072
58806784
58787072
58782720
58727424
58792704
58829056
58851328
58867968
58794240
58776064
58793984
58838272
58771456
58667008
58438656
58333696
58733312
59553280
60731904
62420992
64155392
65649152
66291456
65373184
63638272
61715712
60011008
58996224
58358272
58199808
58318848
58442240
58493952
58557696
58629888
58811392
58949120
58931200
58957568
58997504
58976768
59044608
59136000
59144448
59118848
59089408
59157248
59155712
59308288
59362048
59210752
59050752
59014400
59194368
59369216
59480832
59508736
59494400
59502080
59570176
59638528
59617536
59592960
59712256
59894784
60122880
60097792
59876096
59684096
60048128
60227840
60275968
60414720
60519424
60463360
60457472
60626432
60753408
60809216
60757504
60697088
60585728
60660224
60813824
60765696
60599808
60547328
60520448
60389632
60216832
60111360
59991808
59968000
59884288
59625984
59545344
59483648
59392256
59280896
59168768
59157760
59024384
59043072
59157504
59028992
59035136
59046400
58984448
58993152
59031296
59075584
59187968
59184384
59188992
59232768
59266304
59220992
59192576
59318016
59403776
59386880
59301376
59296000
59312384
59290368
59211776
59194368
59217664
59310336
59307776
59253504
59244032
59294720
59254016
59181056
59113728
59104000
59138560
59223808
59182848
59025664
59035648
59104000
59079936
59006720
58989312
58908672
59008000
59192320
59208192
59105280
59015424
58980864
58892544
58848512
59005184
59052544
58979840
59014144
58957824
58977280
58996224
59016960
58995968
58999040
59108096
59085824
59001856
59002368
59095040
59241728
59226368
59218944
59283712
59330048
59324160
59318528
59250432
59210240
59207936
59095808
58900224
59017728
59047936
58934528
58786304
58677760
58606848
58673152
58769408
58831104
58799104
58656256
58607616
58648064
58768384
58785792
58767872
58685952
58570240
58620160
58655488
58710784
58527232
58246912
58234624
58697984
59781632
61236480
62857984
64614400
65944832
66096384
64807936
63068160
61076736
59422464
58567680
57948160
57756672
57914880
58213888
58547456
58642688
58667520
58651648
58706432
58776064
58679040
58712064
58852608
58887424
58950656
58909184
58956288
58901248
58871040
58845184
58917120
59044352
59084544
59094272
59017728
59063296
59197440
59192064
59265024
59382272
59254528
59117056
59106560
59223552
59491584
59631616
59698432
59683840
59693568
59739904
59787008
59897088
59959552
60100864
60251648
60317952
60358656
60447232
60438784
60506624
60614656
60680192
60564992
60535808
60548352
60453632
60406272
60360448
60299008
60215552
60083200
60041472
59977984
59848192
59706880
59638528
59551232
59424768
59304448
59033600
58826240
58769664
58848512
59006720
59022592
58890752
58779136
58836224
58883840
58809344
58662400
58688256
58768128
58785792
58733056
58701568
58891520
59140864
59144192
58969856
58906624
59111936
59136768
59001600
58897664
58857472
58922752
59085824
59032832
58938880
58980096
59028224
58873088
58747648
58815744
58973184
58996736
58878208
58761472
58651648
58850304
58920448
58765056
58713600
58577920
58676992
58661632
58676992
58771968
58862080
58711552
58664448
58610944
58534144
58570752
58592768
58657792
58750208
58795008
58751232
58651136
58476800
58609920
58983680
59001088
58831360
58790144
58779648
58799360
58844928
58839808
58914560
59015424
59130880
59177984
59086336
59003904
59144960
59221504
59041792
58767104
58689280
58951424
59321088
59049728
58477568
58245376
58267648
58427392
58322432
58339584
58358016
58339072
58394112
58387712
58408192
58400256
58394624
58372096
58354176
58369536
58407936
58379008
58103296
57701888
57634048
58296320
59435776
60838656
62405120
64068608
65561600
66092032
65143040
63450624
61552640
59686144
58588416
57972480
57784576
57740544
57837312
58181120
58315264
58444032
58462720
58502912
58447104
58539008
58591488
58569216
58527232
58533120
58575872
58727936
58716672
58654720
58741248
58856192
58892288
58811648
58744832
58777856
58849024
58861824
58888192
58906880
58888960
58988032
59138560
59191552
59221248
59200512
59120384
59134208
59341056
59465216
59560192
59655680
59680000
59663616
59744000
60003072
60191232
60351488
60235008
60081664
60053248
60084224
60335104
60346624
60381952
60344064
60236032
60071936
60131328
60135936
60074752
60002560
59845376
59686144
59439872
59382272
59326720
59176960
59084288
58903552
58714368
58789888
58664704
58553088
58541056
58604800
58538752
58557696
58705920
58577152
58454528
58461440
58463232
58507008
58614784
58638848
58667776
58592768
58481664
58567168
58626560
58781952
58733312
58485248
58485248
58729472
58754048
58665728
58579968
58575616
58533888
58503936
58614272
58664960
58633728
58505728
58444800
58458624
58516224
58569728
58471424
58396672
58494720
58390528
58474752
58439168
58434560
58321152
58200576
58432256
58671872
58599680
58109952
58029056
58425856
58465280
58418688
58371584
58213632
58192896
58253312
58312192
58354432
58510080
58478336
58446848
58315008
58239744
58367488
58525696
58626560
58667008
58681344
58720768
58777856
58696704
58699008
58682368
58652672
58561024
58482688
58460672
58409984
58321408
58195968
58143488
58161408
58160640
58216704
58073600
58007040
58120448
58242816
58239232
58207744
58147328
58120192
57989888
57941760
57951744
57954048
58088960
58019328
57637120
57527552
57894144
58590208
59729408
61291264
62968576
64560896
65721088
65527296
64077568
62264064
60157952
58664960
57920768
57633536
57790976
57861888
57929984
57999872
57971456
57922304
58212608
58439168
58434560
58404352
58371584
58392320
58395136
58354944
58309888
58391808
58553600
58547968
58489856
58449152
58581760
58808320
58846976
58731264
58754304
58695936
58645504
58592512
58806784
58986240
59032320
59074560
59123968
59132160
59212544
59222272
59282944
59320832
59356160
59443200
59608320
59685632
59890688
59991808
59994880
60018176
60081408
60322304
60340992
60322816
60295680
60281600
60230144
60156160
60036352
59849472
59922176
60041728
59954176
59770368
59609600
59433472
59312640
59195136
59139328
59087616
59055616
58884608
58706432
58580736
58614272
58620928
58639104
58628096
58559488
58445824
58391296
58520064
58585088
58542336
58544896
58529536
58504448
58631168
58773760
58741760
58630912
58609920
58638080
58757888
58942720
58823168
58744320
58754304
58845952
58829568
58824704
58798080
58758400
58695680
58629120
58780928
58812160
58753536
58876672
58741504
58647296
58729216
58779904
58707968
58581504
58512640
58573568
58588160
58543616
58368768
58413568
58600960
58655488
58697216
58535680
58388992
58426880
58457600
58521088
58733568
58760960
58757632
58748416
58720256
58683392
58518272
58386432
58623488
58653440
58585344
58672640
58872320
59026432
59158528
59145216
58880512
58817280
58639616
58502144
58424320
58625536
58898688
58771456
58612224
58487808
58395136
58374912
58219520
58181888
58197504
58285824
58360576
58402560
58430464
58310400
58297344
58355456
58324480
58259200
58245632
58259200
58174464
57842432
57514496
57793024
58582784
59566080
60956672
62590720
64299520
65571840
65648384
64342016
62704128
60857344
59254016
58163200
57704704
57708032
57920256
58040320
58057472
58241280
58408448
58463744
58489856
58337536
58271488
58423552
58589440
58482176
58558976
58757632
58753280
58739712
58750720
58575360
58439424
58561280
58766336
59045888
59152896
58992896
58892032
58891776
58884096
59036160
59170304
59194880
59312128
59325696
59317504
59335680
59424768
59669760
59783680
59762432
59831808
59987712
59959808
59945216
60017408
60038144
60263168
60564736
60830720
60710400
60589056
60614400
60557056
60547840
60516352
60442112
60441344
60387840
60242944
59992832
59969280
60052224
59881472
59696384
59559936
59415552
59353344
59341312
59098368
59118592
59186944
58996224
58906624
58863616
58749440
58553600
58676992
58933248
58845184
58720256
58653952
58590976
58697984
58781952
58885120
59078144
59104768
58999040
58883584
58883584
58970368
59074560
59179776
59115776
59156480
59124736
59057664
59122432
59127040
59050752
59026176
59109376
58915328
58930944
59131392
59183360
59079680
59013120
58882304
58873344
58970880
58909440
58824192
58773504
58856960
58979328
58993920
58888704
58841344
58763520
58712320
58913536
58927104
58696448
58766080
58832384
58817280
58746624
58778112
58961664
58928384
58912256
58991616
59042816
58858240
58866688
58979072
59041280
59067904
59135488
59203072
59190272
59197696
59206912
59215872
59273472
59216128
59110144
58957824
58910720
58796032
58718976
58699264
58705152
58748160
58752512
58744064
58731264
58646016
58607616
58597888
58643968
58712576
58690560
58670336
58640896
58615296
58650368
58645248
58610688
58227456
58003968
58183936
58963200
59997696
61467648
63206912
64921088
66242048
66248960
64795648
63100416
61096192
59397632
58452224
58034944
58045696
58173952
58316544
58414080
58508800
58516480
58574080
58634240
58649344
58885888
58899456
58919168
58965504
58924544
58907648
58828544
58786816
58943232
58976768
58938112
59015424
59020544
58972416
59060480
59122432
59181824
59175680
59219200
59243520
59240192
59348992
59382784
59448320
59517696
59505920
59522304
59631872
59785216
59875840
59990784
60079616
60098048
60212736
60330240
60436224
60510976
60575232
60642816
60655872
60702208
60688128
60656640
60637696
60576512
60531456
60424960
60310784
60368128
60297216
60196608
60031232
59897600
59776256
59624960
59506688
59465472
59354624
59279616
59189760
59106816
58983424
58961664
58847232
58818816
58870784
58908416
58892288
58830336
58865152
58918656
58951936
58940416
59036160
59011328
59033600
59036672
59036416
59044096
59107328
59136768
59171328
59213824
59224832
59235584
59179008
59108608
59202816
59211520
59169024
59225600
59218944
59182592
59104512
59089408
59116288
59130880
59104512
59067648
59055360
59090944
59090176
59089152
59112704
59035904
58970880
58956032
59086592
59062784
58958336
58962688
59002368
59057664
59016960
59008000
58991616
59027712
59021312
59106816
59080192
59106048
59138816
59120896
59090944
59066880
59086848
59184384
59222272
59276032
59410176
59427072
59533568
59518464
59504128
59397888
59358464
59305728
59246336
59189248
59123712
59076608
58978560
58961920
58979584
59005440
58963456
58932736
58947840
58895616
58860800
58865152
58894592
58921728
58916608
58893568
58882048
58966784
58937600
58842368
58782464
58614528
58561792
59006464
59791104
60963072
62418432
64036608
65390848
66197504
65932032
64376832
62525184
60510464
59369984
58653184
58280448
58289664
58376704
58499072
58618880
58778112
58881280
58856192
58949120
59073280
59117824
59165952
59214848
59212800
59209472
59260416
59305216
59311104
59303168
59321344
59418112
59449600
59386880
59413248
59464192
59485440
59551232
59595520
59595776
59630336
59689984
59744256
59788032
59859200
59918080
59960064
60041984
60077312
60154624
60210688
60326912
60430848
60486656
60636928
60663040
60641280
60816896
60996864
61004032
61060352
61043200
61016320
61022208
61020416
60922112
60873472
60795648
60716800
60630528
60617216
60503552
60314112
60082176
60069376
60017664
59860992
59768576
59636480
59491584
59473664
59449088
59376384
59327744
59233024
59124480
59170560
59134208
59193856
59179008
59188480
59235584
59205888
59204352
59309056
59304192
59354112
59464704
59470848
59518208
59571200
59572992
59569152
59548928
59561216
59563008
59593984
59526656
59641856
59691776
59710976
59696128
59543040
59582464
59737856
59676928
59608320
59587328
59621376
59594496
59638528
59590912
59571456
59569920
59448576
59361536
59327488
59396864
59466752
59398400
59329024
59260160
59269120
59255552
59170304
59174656
59159552
59139584
59129088
59129856
59131904
59132928
59211520
59191808
59275520
59311872
59308800
59203584
59232256
59267328
59311872
59403776
59506944
59491072
59471872
59510784
59507456
59511296
59421440
59342848
59293696
59282176
59209216
59172864
59177984
59105024
58991360
58917888
59025152
59021312
58989056
58988544
58920704
58882816
59036160
59082496
59064576
59036672
59002112
58971648
59027200
59021568
58935296
58782720
58652928
58857728
59500288
60567552
61857024
63358720
64849920
65938688
66130432
65049856
63359232
61358080
59771904
58978048
58620928
58640128
58763520
58853376
59039744
59301888
59485696
59502592
59544320
59535872
59571712
59642368
59767040
59739392
59706368
59820544
59871232
59873792
59895040
59885056
59919104
59942144
59954432
59987712
60120832
60193024
60215808
60264192
60342528
60373760
60438016
60511232
60574976
60619008
60719616
60790016
60840704
60943616
61079552
61180672
61255936
61350144
61480192
61593856
61671936
61728512
61849856
61902592
61942272
62020096
62174976
62152704
62063104
62076416
62033408
62034944
61940992
61906432
61867008
61812224
61702400
61550080
61436416
61371648
61284096
61166848
61108224
60990720
60907520
60854528
60824320
60776448
60732672
60710144
60700672
60734976
60805376
60745216
60742912
60757760
60798464
60828416
60843008
60886528
60930048
60970240
60995072
61045760
61109760
61135872
61184768
61264128
61374976
61357568
61400576
61416960
61444864
61457664
61471488
61475072
61448448
61452800
61490432
61455104
61387264
61362944
61399808
61435904
61382656
61323776
61293312
61302272
61272064
61306112
61303040
61299200
61265664
61279232
61273600
61235712
61200640
61169920
61147392
61140224
61192192
61187072
61192704
61175552
61127424
61107712
61105408
61158144
61184000
61196032
61172736
61223424
61304832
61314560
61298944
61268736
61253376
61304064
61427200
61510144
61523200
61531648
61598720
61573376
61528320
61535744
61503488
61428736
61336064
61268992
61254400
61242112
61189632
61082880
61058816
61051648
60977664
60896512
60934400
60967424
60974080
60935936
60974336
60995328
60966400
60934144
60912640
60935680
60967168
60902912
60741120
60518912
60495104
60886016
61669888
62861312
64418816
66090752
67509760
68288256
67856640
66319104
64436736
62377728
61157376
60442112
60232192
60371456
60526848
60667392
60780032
60896768
60965120
61012992
61046272
61128704
61152768
61228288
61266944
61282816
61314560
61321984
61292800
61307648
61329408
61380608
61431808
61458944
61512448
61525504
61523200
61572352
61618176
61626368
61638912
61703936
61730304
61787392
61937664
61938688
61920512
62018560
62172416
62285056
62347520
62402560
62489344
62568960
62644992
62779904
62892800
62927616
62993408
63098624
63205632
63244288
63250176
63178752
63181312
63171328
63192320
63107840
63058176
62993408
62874368
62801664
62674432
62542592
62448384
62243840
62057472
61973248
61970176
61827840
61758720
61680640
61608448
61519872
61398528
61358848
61360896
61365760
61323264
61323776
61342464
61344000
61305088
61338368
61300224
61366272
61454080
61515520
61539072
61520896
61547264
61471744
61472000
61647872
61671680
61596160
61583616
61580800
61468928
61558272
61631744
61705472
61663488
61640960
61677312
61655552
61601280
61584128
61573888
61547776
61617920
61649920
61580032
61510912
61529344
61540864
61486592
61509376
61527552
61541888
61522944
61527808
61466368
61469184
61468928
61407232
61422336
61404160
61311488
61398016
61467904
61474816
61417472
61355264
61344000
61489920
61651968
61692416
61625856
61582336
61562880
61547520
61630208
61706496
61743872
61775616
61795072
61814272
61786880
61692416
61687296
61681408
61626112
61563392
61512960
61419520
61347328
61237760
61235968
61276928
61248000
61226496
61245952
61225984
61238016
61248512
61268224
61263104
61171200
61173504
61206784
61113088
61122304
61133056
61112576
60893440
60807680
61067776
61819392
62916864
64317184
65901056
67352064
68352768
68446720
67163904
65379328
63194112
61619456
60840192
60572672
60568064
60705024
60866048
60957184
61123840
61218816
61208320
61273856
61303552
61334528
61380864
61416704
61419264
61424384
61474816
61567232
61539840
61527040
61509120
61488128
61497088
61556736
61625344
61611264
61584384
61679360
61675008
61679104
61796608
61848576
61922816
61964544
61991680
62012928
62059264
62134528
62265088
62306304
62321408
62389504
62262016
62058496
61880576
61854720
61949952
62014464
61768448
61252352
60954368
60843776
60793088
60826880
60846336
60754176
60676096
60606208
60543232
60422144
60353024
60312832
60225280
60018176
59867136
59690240
59488768
59329280
59284480
59260928
59219712
59107072
59028480
58976512
58916096
58872320
58841600
58870016
58841600
58811904
58798848
58856192
58849280
58846976
58827264
58831360
58860800
58852608
58936832
58992384
58970368
59017216
59022592
59001600
59018240
59077888
59102208
59126272
59142912
59121152
59110656
59171328
59107072
59118848
59073792
59080192
59054592
59024640
59025664
59014144
59008000
59041024
58987520
58951936
58981376
58966784
58901760
58962432
58949120
58871296
58784256
58807552
58844160
58836736
58803456
58829312
58839808
58822656
58774272
58768896
58799360
58825472
58796800
58773760
58779136
58812160
58743296
58705920
58707712
58657536
58699264
58798080
58823680
58846720
58918400
58856192
58853888
58875648
58888960
58939648
58983680
59065856
59027200
59017216
59048960
59062272
59028480
58907136
58788864
58731520
58723840
58735360
58678272
58603008
58537216
58511616
58462976
58427392
58408192
58377728
58415872
58432256
58418176
58432512
58389504
58289408
58268160
58297600
58341376
58434304
58386944
58151168
57920256
57999872
58447616
59300608
60531712
62062080
63655936
65117952
65950976
65456128
63855616
61810688
59744256
58459136
57938688
57903872
57979392
58078720
58258944
58364160
58426368
58464000
58510592
58615040
58661376
58633216
58607616
58598656
58665216
58660096
58605824
58643456
58710272
58689024
58686720
58747648
58817536
58843648
58858240
58848512
58864640
58910208
58973440
59022848
59040512
59059200
59093248
59148800
59271168
59298816
59368192
59436544
59475456
59585536
59706624
59786240
59900160
60015360
60061184
60153088
60253952
60320000
60400896
60462080
60476672
60532480
60533248
60545536
60531968
60471296
60470528
60417792
60282112
60195072
60067072
59943680
59907584
59750144
59573504
59471872
59408640
59373312
59229184
59134976
59055872
58929920
58853632
58820352
58806272
58786048
58796032
58798592
58786816
58743296
58706176
58741504
58779392
58793472
58825216
58852608
58898176
58936832
58947328
58951424
58943744
59015168
59052032
59045888
59091456
59098112
59047168
59015680
59014400
59036672
59054848
59089408
59132672
59118592
59112448
59191040
59194624
59167232
59139328
59142144
59148544
59119872
59147776
59189504
59152128
59129600
59160320
59154432
59136000
59159808
59160320
59162368
59164160
59178496
59164416
59142656
59152896
59120896
59124992
59163136
59174400
59181312
59183872
59151616
59180544
59192320
59151104
59161856
59147264
59151360
59247872
59217408
59233280
59252736
59335424
59309312
59349248
59363840
59307008
59312896
59363840
59553536
59663872
59654144
59672064
59683328
59583744
59623168
59706624
59666176
59549440
59523328
59481088
59375360
59327488
59296768
59240192
59224064
59206912
59234560
59253248
59230976
59209216
59215616
59202048
59191552
59208960
59190016
59161856
59223808
59283968
59255552
59212032
59094784
58894336
58898944
59241216
59979264
61110784
62563328
64193280
65708544
66663680
66507520
64988160
63141888
60984832
59569408
58872832
58548736
58619392
58815232
59006976
59165696
59334144
59422720
59488512
59493632
59506944
59559936
59677440
59761920
59788800
59732480
59720448
59815680
59849472
59757312
59774976
59832576
59909120
59966208
59906048
59887360
59918080
60019712
60071168
60110592
60192000
60207616
60283904
60349440
60435456
60472576
60513280
60558848
60611840
60714752
60876800
60989440
61043456
61137152
61201920
61296896
61392640
61474560
61529600
61617152
61644032
61683200
61705472
61630720
61623296
61607680
61538816
61509888
61442304
61323264
61186048
61083392
61013760
60869888
60715264
60567040
60442624
60342784
60251392
60086528
59994368
59892480
59823872
59770112
59693568
59620096
59545600
59475968
59444992
59437824
59456768
59458048
59437568
59397632
59410176
59409408
59443456
59446272
59438592
59485184
59576832
59609088
59643392
59651328
59660288
59731200
59746304
59719680
59702784
59769344
59806208
59749632
59752704
59782656
59787008
59803392
59785472
59785984
59783168
59789568
59810048
59786496
59779584
59802112
59787520
59791104
59769344
59737344
59714304
59745280
59735808
59729152
59755776
59753472
59780096
59758336
59716864
59717120
59793664
59771136
59770112
59781120
59779072
59773440
59796992
59778304
59731200
59701248
59736320
59794176
59762432
59726336
59726848
59735040
59795456
59864832
59905792
59946496
59997696
60011520
59995648
60001536
60024832
60026112
60097024
60146432
60218368
60296960
60338176
60326144
60300544
60309504
60271616
60180480
60127488
60099328
60005376
59950592
59903232
59851520
59773696
59727104
59699712
59705088
59713024
59697152
59667968
59658752
59661824
59660800
59706624
59693568
59683840
59700480
59704832
59698432
59660032
59498496
59188480
59098624
59503616
60342784
61561088
63140096
64838912
66412800
67553792
67538944
66166528
64201728
61903360
60147968
59310080
59113984
59272960
59414528
59566080
59696640
59803648
59847680
59871232
59916800
59947008
59957248
59990528
60025600
60036864
60030720
60066560
60112384
60096512
60130560
60158976
60187136
60195584
60213760
60235520
60265216
60290048
60348160
60380672
60421376
60443904
60500992
60575232
60598528
60650752
60708352
60802560
60925440
60984832
61031680
61078016
61188352
61286144
61338368
61483008
61614592
61672960
61742848
61859072
61911808
61962496
62030336
62039552
62003200
61963008
61903104
61839616
61744896
61672960
61580288
61462272
61318144
61191424
61037568
60913920
60789760
60643328
60481792
60342784
60249344
60157440
60066560
60017408
59985664
59939328
59873536
59791104
59725824
59699712
59708160
59723520
59747840
59770112
59735040
59733504
59764480
59761152
59811328
59839232
59838464
59836672
59804928
59830016
59857920
59870208
59888896
59897856
59897600
59927552
59927808
59924992
59936256
59947264
59907840
59906048
59910144
59914240
59916288
59928320
59860224
59851008
59837440
59789824
59781120
59771648
59774720
59732992
59743232
59732224
59742464
59735552
59737088
59715584
59711744
59678976
59671296
59632896
59641600
59651328
59642880
59627776
59654144
59626240
59612928
59567872
59547904
59581952
59586560
59621120
59715328
59644672
59535872
59540480
59551232
59546368
59521536
59553536
59545600
59542528
59565568
59596544
59640064
59659520
59660032
59686912
59628032
59589376
59642880
59748096
59859200
59974144
59952896
59934208
59879168
59852288
59846400
59810816
59741440
59713792
59608320
59528704
59471616
59438848
59364608
59298560
59280128
59313408
59296000
59269888
59301632
59310592
59267072
59250944
59256064
59224320
59206912
59159808
59166208
59192320
59197184
59122432
58868736
58646272
58746368
59353344
60354048
61694464
63421696
65243392
66797056
67411968
66438400
64600576
62524160
60452608
59176704
58612480
58614272
58691072
58810368
58965760
59130624
59185408
59271424
59381504
59364864
59342080
59385856
59392000
59425536
59463936
59414784
59462144
59473920
59479296
59530240
59554560
59611648
59658752
59657728
59656192
59654656
59664640
59676672
59726592
59804928
59840768
59881216
59941632
60004608
60077056
60133120
60113408
60182784
60304896
60405248
60449792
60535808
60594176
60648448
60787456
60861440
60988672
61031168
61043712
61099776
61166592
61212928
61186816
61177600
61129216
61082368
61027328
60942592
60878592
60847104
60748800
60608512
60489984
60407040
60243712
60140032
60054784
59938560
59846912
59796992
59686912
59573760
59517696
59451392
59414784
59342080
59357440
59374336
59356416
59326208
59354624
59367936
59422720
59421952
59431936
59439872
59470848
59467520
59497472
59525888
59527168
59567872
59580416
59531520
59496448
59527168
59558144
59565568
59608832
59592448
59582976
59582976
59540736
59523840
59556096
59557376
59504128
59488000
59491584
59492864
59477760
59484672
59482368
59459840
59447808
59441920
59428352
59439104
59421184
59389184
59368704
59378688
59449088
59465984
59433216
59396608
59392000
59379968
59370496
59396608
59375104
59367936
59369216
59333888
59346432
59389696
59372544
59417856
59355904
59305728
59319552
59326208
59342592
59344640
59286272
59315200
59336192
59317504
59311360
59324928
59323136
59355904
59381248
59421440
59448064
59505408
59431680
59444480
59459584
59471872
59517952
59587328
59686144
59754752
59789056
59760384
59725824
59686400
59671040
59637248
59570688
59474944
59384320
59346432
59336192
59289344
59232000
59214592
59231488
59203840
59192320
59158528
59115520
59157504
59217152
59176704
59156224
59170816
59197184
59162624
59101184
59063040
59025152
58874624
58650368
58614016
59008256
59872768
61201152
62828800
64641024
66333440
67170048
66355200
64587520
62562048
60490752
59227904
58594560
58450688
58601216
58720512
58905344
59051264
59123712
59205888
59244032
59255808
59318528
59368960
59386880
59428864
59458304
59452672
59503360
59520768
59535360
59547904
59561728
59629312
59680256
59708160
59708672
59709184
59703296
59785984
59845888
59878656
59950848
59952896
60003840
60063232
60101888
60181504
60248064
60293632
60331264
60406016
60460288
60544000
60648960
60722432
60832768
60881408
60924160
60986624
61047040
61100032
61172224
61196544
61187584
61144576
61126912
61111296
61048064
60966912
60897024
60798720
60704512
60622080
60567808
60479488
60392448
60292864
60125952
60007168
59920640
59827712
59763200
59730688
59652608
59567104
59546112
59588352
59608832
59620608
59582720
59574784
59589376
59640832
59669504
59672064
59668224
59675904
59742464
59750400
59758080
59778048
59790336
59759616
59774720
59793920
59804672
59790848
59788800
59781888
59740928
59752960
59734016
59712512
59731200
59708672
59702272
59697152
59724544
59735808
59689728
59688448
59692544
59673088
59671040
59654656
59625728
59652096
59642624
59616512
59603712
59628032
59637504
59628544
59661056
59619328
59585792
59574528
59597568
59631104
59647232
59630848
59582720
59571456
59606784
59640064
59610880
59591168
59590144
59587328
59600384
59621120
59620608
59636224
59598336
59619072
59616512
59608576
59634688
59715328
59741696
59754496
59756544
59777280
59794944
59796736
59803648
59869440
59947008
60028416
60109568
60145408
60091392
60084224
60085504
60049664
59955968
59887104
59829760
59759872
59726080
59657984
59596800
59584512
59569408
59546624
59519232
59527936
59513344
59506944
59540224
59549696
59536384
59503616
59477504
59479552
59503104
59477504
59486720
59462912
59261952
59140352
59350784
59906560
60939520
62344960
63942400
65671168
66799616
66880512
65555200
63777280
61721088
60075008
59256320
58772224
58694144
58809344
58920448
59045376
59199744
59365888
59438080
59463168
59534848
59616512
59646720
59638784
59656960
59672320
59696128
59728896
59725312
59733504
59745792
59827456
59852800
59841792
59860224
59857152
59887872
59946240
59994368
60050432
60120832
60143872
60178432
60250368
60267520
60290304
60314112
60354816
60461056
60537344
60576000
60663808
60752128
60802304
60866304
60964864
61038848
61131008
61226240
61252096
61273344
61269760
61250048
61229568
61216000
61203200
61163264
61087232
61013504
60932608
60856832
60794368
60702720
60591616
60496128
60402688
60316416
60194816
60078336
60006144
59905024
59824640
59768064
59739904
59715328
59708672
59681536
59670528
59652608
59658496
59694080
59707904
59732992
59757312
59755264
59788032
59810304
59832832
59842304
59864320
59890688
59884032
59863040
59865088
59908096
59936512
59934464
59964928
59945216
59883776
59837952
59830528
59831296
59814912
59772160
59756288
59764480
59728896
59721216
59724032
59710720
59700992
59697920
59693056
59696640
59671296
59636992
59629824
59632640
59628544
59616768
59598592
59590912
59612160
59557888
59544576
59539200
59502848
59502848
59534080
59532800
59541248
59560960
59542272
59557376
59544064
59556352
59536128
59493376
59497472
59515904
59537152
59556608
59544320
59528448
59521536
59529216
59539456
59563776
59620096
59676672
59713280
59719168
59693312
59705344
59719680
59751680
59833088
59915520
59937280
59906560
59911424
59932928
59957248
59927040
59906816
59844608
59757824
59655936
59610368
59557120
59487232
59428864
59400704
59408384
59400192
59404032
59376384
59362048
59343616
59311872
59291136
59303424
59323904
59346432
59346432
59288320
59268352
59279360
59175168
58902016
58780928
59043840
59782912
60910592
62348544
64106496
65876992
67131648
67079936
65603584
63686400
61448704
59791872
58941696
58635520
58738176
58851072
59004672
59183104
59265792
59322368
59359232
59413504
59444480
59438336
59454976
59498752
59522048
59554048
59567616
59588096
59592960
59617792
59650304
59661312
59654144
59693568
59711232
59724544
59765248
59825152
59840256
59847936
59873792
59923968
59997440
60051200
60076288
60120576
60148224
60201216
60263936
60318208
60396800
60486144
60578816
60644864
60730368
60800512
60900864
60978176
61010688
61041152
61043712
61068032
61069568
61044992
61018368
60998912
60978176
60926976
60843264
60763136
60691456
60627200
60549632
60438528
60299264
60203776
60120576
60013056
59926016
59857152
59785472
59708416
59645184
59600896
59580416
59541248
59534848
59531008
59539968
59555072
59568128
59589632
59597312
59617024
59642368
59658752
59665920
59659264
59655680
59678208
59705344
59701248
59661824
59649792
59652352
59652096
59685888
59660032
59630848
59629312
59645184
59643392
59636480
59606272
59591168
59583232
59571712
59572224
59544320
59500032
59503616
59484416
59476224
59477760
59469824
59435520
59413760
59412224
59394816
59384832
59389952
59394816
59384064
59388928
59398400
59362304
59334656
59334912
59334400
59341312
59348992
59331328
59316736
59312128
59341824
59349760
59339520
59323136
59313664
59308800
59311360
59315712
59320320
59335936
59356672
59364864
59402752
59436032
59487232
59493632
59447040
59422464
59446016
59507968
59574528
59636992
59739392
59772416
59781376
59764224
59756032
59711744
59616000
59550976
59524352
59467264
59419136
59327744
59229184
59155968
59140096
59130368
59114496
59107072
59096320
59109888
59101696
59095808
59065088
59058688
59051520
59035904
59060224
59085312
59077376
59043328
58945024
58673152
58491904
58675968
59335424
60406528
61874944
63672832
65468416
66744320
66596608
65070848
63214336
61074176
59516160
58697728
58310656
58350080
58529024
58655744
58838272
58973952
59046144
59084288
59152640
59160320
59178752
59234048
59257600
59281152
59314176
59331328
59329024
59321088
59368704
59381248
59404032
59449344
59474176
59473664
59504896
59548928
59555840
59579904
59624960
59673856
59692288
59705600
59791360
59863040
59897856
59944960
60023808
60084736
60125440
60211456
60297472
60334080
60415488
60522240
60596736
60639744
60709376
60773376
60800000
60837376
60858880
60901632
60882688
60823808
60786688
60757504
60715008
60643328
60557312
60455680
60349952
60236544
60136704
60018688
59936256
59831040
59713792
59628544
59531776
59431168
59376896
59294720
59239936
59200512
59191808
59184384
59172864
59166208
59172864
59172096
59187200
59199232
59217664
59264768
59255808
59280384
59287808
59282688
59270144
59308288
59327744
59333120
59321600
59299328
59298816
59321088
59305728
59301632
59264000
59289088
59308032
59271424
59257856
59245312
59220736
59233536
59205632
59178240
59195392
59193856
59175680
59143936
59121920
59115776
59107072
59123200
59092736
59073792
59091200
59119360
59111936
59062272
59053056
59051264
59049472
59051520
59046912
59072256
59047168
59055104
59054848
59065088
59072512
59060480
59052544
59077120
59073792
59039488
59047424
59039232
59073536
59096832
59171840
59192320
59163648
59186432
59157248
59100160
59134720
59186432
59244800
59347200
59480576
59483136
59524608
59543808
59507712
59457536
59417344
59393792
59326976
59248128
59170048
59182592
59129088
59002624
58981376
59002368
58997760
58968064
58988032
58993664
58995456
58993152
59003136
58970624
58996480
58995200
58999040
58984192
58999808
58960896
58946048
58771712
58690560
58963200
59627008
60677376
62043904
63724032
65432576
66491136
66496256
65179648
63228416
61123840
59555328
58804736
58315520
58160384
58225408
58354432
58456064
58580224
58768896
58874368
58902272
58936320
59013376
59047424
59065344
59081472
59102976
59143936
59180544
59200000
59194880
59141376
59165696
59205632
59216384
59222528
59203840
59253248
59303680
59289088
59312384
59343616
59400448
59427328
59473152
59483648
59518976
59554816
59605760
59655936
59740672
59824640
59897344
60013056
60085248
60162048
60220928
60295680
60376576
60459008
60505600
60503552
60491520
60520960
60536064
60496896
60493056
60472832
60415232
60346368
60274176
60252672
60162048
60039168
59956224
59817472
59702784
59589376
59486464
59403776
59272192
59151104
59073536
58999808
58964224
58910976
58856960
58871808
58860800
58881792
58907648
58919424
58969600
59017984
59017472
59037696
59103488
59120384
59137280
59163648
59174400
59182848
59208704
59222784
59250176
59248896
59223040
59214592
59221760
59213568
59193856
59169536
59163392
59150592
59134464
59118848
59106816
59120384
59095552
59048960
59047168
59053056
59027712
59006720
58993664
58991872
58989824
58957568
58938112
58940160
58941952
58943744
58923776
58934016
58921984
58933504
58935808
58940672
58934016
58912256
58904064
58900480
58935808
58963200
58971136
58971392
58979584
59004928
59061760
59064832
59101696
59113216
59110912
59115264
59110656
59174144
59250176
59358976
59450880
59516416
59545600
59497984
59469568
59435520
59395328
59362048
59357952
59277056
59204608
59200768
59175168
59108608
59077120
59071232
59056640
59068160
59084288
59098624
59095552
59078912
59062272
59072000
59032320
59016704
59001600
59021568
59013888
59000064
58973696
58791424
58632960
58726912
59256320
60251904
61638912
63215872
64877568
66042880
66156288
65016832
63400448
61377536
59713792
58867712
58339840
58238720
58375936
58555648
58669824
58830336
58967808
59071232
59156992
59207680
59248896
59300352
59310592
59319808
59348224
59374592
59403520
59422208
59429632
59489024
59523328
59515648
59543040
59592192
59603712
59631104
59689216
59714304
59721984
59776512
59812608
59837440
59867392
59924480
59984384
60028928
60109056
60190464
60257280
60330240
60388096
60470272
60604160
60689920
60769792
60865536
60964096
61073664
61092608
61091840
61129984
61157120
61168640
61156096
61126144
61090560
61031424
60963328
60897280
60826880
60723200
60584960
60495872
60372480
60254720
60155904
60067328
59965952
59866880
59768832
59694592
59652352
59616256
59559168
59544832
59512064
59495680
59532544
59530240
59539968
59532544
59531264
59559680
59619584
59645952
59671808
59689728
59736320
59781120
59787264
59773184
59816960
59873280
59797248
59856128
59925248
59851264
59793920
59805696
59820288
59816192
59840256
59888128
59789824
59753984
59726848
59758080
59806208
59832064
59777536
59752192
59773952
59774464
59760640
59760128
59753216
59744000
59757056
59725312
59721472
59731456
59726592
59747072
59769600
59752192
59723008
59706368
59722240
59736576
59746816
59739392
59725568
59732736
59753216
59770368
59789056
59791104
59815936
59880960
59864064
59811328
59765248
59779072
59796224
59894784
59999488
60097024
60141824
60158464
60177408
60160256
60129536
60100608
60056320
59959552
59889152
59831552
59791104
59774464
59719936
59654656
59617280
59584256
59546368
59567616
59594752
59609088
59570176
59565824
59577088
59571456
59582464
59572480
59585280
59573248
59581952
59583744
59532032
59356928
59192832
59250432
59653376
60517888
61813760
63362560
65072896
66394880
66894848
66077696
64483328
62598400
60730368
59665920
59043584
58854400
58943232
59117312
59232000
59401728
59552000
59635968
59677440
59740416
59759104
59769600
59808000
59871232
59901440
59945472
59928320
59927296
59929856
59934720
59924736
59961600
60026880
60039168
60088064
60124928
60146176
60171264
60201728
60239616
60302848
60369920
60432128
60478208
60524032
60518400
60537856
60665088
60784640
60865280
60936960
61020672
61099776
61209088
61320192
61419776
61532672
61620480
61686016
61731328
61765120
61815040
61831424
61843712
61827072
61790464
61739520
61703680
61649920
61539840
61421312
61302528
61167872
61026560
60881920
60753920
60618752
60459264
60406528
60358144
60215552
60174592
60113664
60037120
59989504
59972352
59911936
59884800
59855616
59857920
59871488
59888640
59929088
59930624
59954688
59972864
60022272
60075264
60083200
60097024
60157952
60156416
60129024
60157952
60230144
60299776
60295936
60314112
60324352
60292864
60272128
60258816
60220416
60202496
60200704
60180992
60216576
60217088
60209152
60187136
60151552
60108544
60007168
59945472
59975168
60024576
60052736
60071168
60035328
60030976
60018944
59993088
59972352
59975424
60001024
60006144
59967488
59973888
60016640
60043264
60037632
60047872
60059904
60103936
60123136
60136960
60156672
60240128
60211456
60149248
60132096
60181760
60241664
60320000
60395776
60468224
60472576
60436480
60426496
60367872
60287232
60231168
60169472
60058624
60055552
60007680
59927296
59848448
59833600
59802880
59830272
59843840
59859968
59894784
59907584
59935232
59960576
59927808
59930368
59923456
59827456
59786752
59883264
59878400
59654656
59312384
59142656
59333632
59976448
61042432
62511360
64173312
65800448
66988032
67042560
65778944
64147968
62110720
60435200
59498752
59055360
59062528
59261184
59394048
59514112
59702528
59812864
59913472
59994368
60033792
60060928
60067072
60019712
60039168
60067328
60088576
60108800
60174848
60259072
60297984
60285184
60165632
60093952
60071424
60099584
60154880
60216832
60316160
60430592
60546048
60508160
60491520
60514048
60667648
60818688
60901120
60901888
61032960
61248768
61457664
61481984
61394176
61142784
61154816
61252608
61368576
61523968
61682176
61755136
61848832
61885440
61896192
61922816
61909504
61885184
61873408
61822464
61688320
61578496
61493248
61416448
61393152
61370368
61240320
60930816
60679680
60680192
60903680
61050624
60776448
60339456
59884288
59740928
59668992
59750400
59773440
59733504
59651584
59628032
59637504
59678208
59726848
59766016
59825664
59906560
59885568
59806464
59801088
59806208
59877632
59960320
60174848
60391424
60455424
60178432
59880960
59771904
59931648
60438016
60922368
60824832
60095232
59599616
59574016
59601920
59696896
59748864
59796992
59834624
59845888
59853312
59853568
59866880
59902720
59916800
59970560
59979520
60260352
60633344
60606720
60018176
59523840
59424512
59569664
59975936
60296192
60162560
59728640
59449088
59452928
59541504
59700736
59820032
59864320
59888384
59921408
60117760
60473088
60519168
60163584
59980544
60299520
60967424
61491712
61150976
60297472
59725568
59406848
59343360
59436800
59533568
59594752
59620864
59582464
59539200
59530496
59507968
59553280
59783424
60202752
60658432
60597504
59923712
59512576
59164672
58983680
59208960
59536640
59764992
59516928
59173376
59074560
58947072
58786816
58853376
59375104
60354304
61608960
63597824
65948416
67966720
68645632
66874112
63830784
61465600
59722240
58797568
58564096
58619648
58732544
58790912
58892544
59033088
59083264
59139840
59369472
59499008
59505408
59510528
59593472
59625216
59663872
59715328
59751168
59716352
59720192
59747584
59783424
59752192
59747328
59719680
59716096
59726592
59731968
59902976
60047872
60132608
60182272
60069120
60084224
60222720
60383488
60347904
60356352
60375552
60430848
60542720
60650752
60765952
60900096
61033984
61134592
61230080
61349632
61491200
61694464
61841408
61777408
61605376
61628416
61681664
61671680
61621504
61562880
61520896
61526784
61415424
61220608
61088000
61001728
60900864
60773120
60673792
60560384
60406784
60312320
60188160
60096768
60069376
60039680
59939840
59841792
59822080
59795712
59760384
59746816
59744000
59875840
59879936
59852032
59769600
59713792
59768064
59830784
59845888
59936000
59975424
59960832
59850752
59824896
59943168
60019712
60077568
60169728
60131584
60088832
60096512
60115456
60092928
60115456
60054016
60037888
60073216
60079104
60068352
60079360
60066048
60032512
59994368
59995392
59976448
59988480
60021760
60025856
59984128
59977728
59930880
59911168
59885312
59925760
59926016
59922944
59959552
60018176
60053504
59986944
59973888
59995392
59945216
59887360
59921664
59980288
60045824
60113152
60049408
60123136
60293120
60169216
59949824
59961600
60115968
60231936
60390144
60410880
60453632
60539904
60494848
60391424
60307968
60259072
60168704
60104192
60082944
60042240
60105216
60148736
60023296
59972096
59815936
59862272
59880704
59803392
59686144
59749632
59821312
59858944
59806208
59826176
59875072
59823104
59761408
59714560
59705856
59828736
59744000
59353344
59275008
59796736
60652544
61931264
63603968
65351424
66856704
67709696
67242240
65605632
63603968
61458688
60176384
59589888
59367424
59124480
59093248
59229440
59422208
59584256
59782400
59926528
59867904
59889664
59929088
59970304
59991808
60057856
60109312
60093696
60098816
60150272
60178432
60189184
60222720
60236800
60283648
60326656
60352512
60413184
60432640
60462080
60539392
60600320
60638208
60704512
60764672
60838144
60897024
60957952
61001984
61079808
61153280
61279232
61415680
61514496
61604352
61674752
61773824
61847040
61931776
62056704
62086400
62099712
62140928
62166528
62178048
62166272
62147328
62114560
62025472
61892864
61816064
61745664
61590528
61473280
61403904
61251840
61038592
60907008
60804352
60694272
60616192
60514304
60401408
60325376
60238848
60177408
60174080
60175104
60133120
60098304
60080384
60090368
60054016
60062208
60092160
60110080
60132864
60136192
60162304
60206080
60229888
60260864
60313856
60356608
60388096
60399104
60443648
60468224
60479744
60466432
60468480
60480000
60483584
60496384
60508672
60495616
60499968
60471552
60486144
60489728
60451584
60455936
60429568
60441856
60418816
60412160
60418304
60436736
60433664
60409600
60377088
60364800
60377088
60389632
60423168
60435200
60438528
60427264
60394752
60364288
60365056
60370944
60400640
60377856
60364032
60363776
60369920
60368384
60351744
60370944
60386560
60413952
60410880
60441856
60438528
60472832
60531968
60510208
60489728
60553472
60561664
60491264
60525824
60588800
60662784
60719104
60760064
60814336
60802048
60747776
60751872
60723968
60693760
60643840
60563712
60478976
60465664
60424960
60351744
60306432
60269568
60259328
60249088
60211456
60185088
60214272
60244224
60278528
60241664
60241152
60263168
60257280
60212480
60178176
60230912
60231424
60175360
59964928
59793152
59921664
60482560
61407744
62713856
64258048
65817600
67049216
67625472
66875648
65311744
63373312
61452544
60265216
59645440
59526144
59621888
59742464
59857664
60027904
60136960
60192000
60244992
60333568
60357376
60349440
60349440
60343808
60336384
60333824
60393728
60429568
60424704
60462080
60489472
60498688
60528384
60545024
60551168
60558592
60585472
60596224
60617728
60697088
60708352
60722688
60777472
60848128
60925184
61014272
61089280
61150720
61234432
61289984
61349120
61464064
61586944
61698560
61781504
61908736
62045952
62187264
62250496
62345984
62378752
62397184
62404608
62430208
62437632
62454272
62371840
62207232
61925888
61794560
61755648
61650432
61531392
61419264
61330176
61207552
61056000
60907776
60813312
60748288
60680704
60580096
60487168
60429056
60401664
60357888
60292864
60255232
60225792
60167936
60108544
60149504
60174848
60186112
60235264
60231936
60286976
60375296
60347904
60361216
60400128
60423424
60443136
60461312
60476160
60467712
60542208
60581888
60631296
60666112
60663552
60677888
60672000
60661248
60622080
60590592
60537600
60524032
60530944
60561408
60564992
60517632
60447488
60421120
60397312
60432896
60462592
60440064
60399360
60385792
60344320
60328960
60357376
60366336
60332800
60316928
60300288
60281344
60293888
60297216
60270080
60229120
60220672
60239872
60288512
60301312
60280832
60281600
60292608
60254720
60211456
60225280
60248064
60219648
60224512
60220928
60204032
60217600
60220416
60226048
60216320
60196352
60239104
60277504
60294400
60274944
60191232
60177664
60186112
60115712
60085760
60079616
60111616
60154368
60185856
60204544
60216832
60226560
60271360
60313344
60328448
60307968
60289792
60368128
60460544
60541184
60654592
60692736
60704512
60698368
60601600
60599552
60587776
60457472
60404736
60377088
60324096
60302080
60289792
60241664
60194304
60172288
60104192
60069376
60097536
60103680
60125952
60160512
60178176
60175616
60187904
60139520
60008960
59969280
59964160
60019456
60056320
60049408
59909888
59652608
59478528
59604480
60034048
60957696
62322944
64161280
66046720
67585536
67877376
66742016
64913152
62713600
60703744
59581952
59181056
59344896
59500032
59640832
59803136
59859712
59888128
59962112
60067840
60101376
60136192
60163584
60167680
60144384
60164864
60193536
60179968
60171520
60123904
60155392
60236288
60269568
60266752
60197120
60196608
60256512
60274432
60327680
60451584
60495872
60520448
60576512
60539392
60514048
60489728
60579584
60711680
60829440
60950016
61051392
61146624
61237504
61303040
61367552
61441792
61523968
61613568
61771520
61872128
61889024
61994752
62033408
62040832
62022400
62011648
61947392
61848576
61825024
61783040
61670400
61572864
61414656
61231104
61105920
60975872
60849920
60684544
60536832
60415232
60342016
60231680
60121344
60031232
59967744
59894784
59830528
59807744
59757312
59745280
59760640
59766016
59720704
59713536
59730944
59633408
59675904
59804928
59776768
59746560
59730432
59801600
59770112
59715840
59733248
59801856
59837952
59970560
60075520
60091648
60082688
60032768
59970816
59952640
59944704
59898624
59880192
59886080
59903488
60012288
60041728
60047360
60000000
59959040
60001536
60049664
59984128
59963904
59923712
59857664
59839744
59860736
59870720
59844352
59871744
59804928
59737088
59780608
59784960
59819008
59812096
59765248
59789312
59844608
59808256
59779584
59705088
59662080
59683328
59786496
59748096
59686656
59694336
59721472
59756800
59710720
59647488
59614976
59555328
59532032
59528192
59527936
59572736
59608832
59576832
59502592
59531264
59579648
59525632
59479808
59464192
59520000
59536896
59482368
59497216
59406592
59458816
59439360
59420672
59470848
59463424
59454976
59390208
59320320
59398912
59403520
59390208
59373312
59394048
59337216
59243520
59255552
59309056
59344384
59360768
59382784
59429888
59379712
59344128
59344128
59287040
59258880
59375360
59468288
59446016
59484672
59438336
59401728
59426048
59485184
59588352
59677952
59787520
59820288
59766016
59735040
59728640
59641088
59576320
59555584
59468800
59462400
59379456
59291392
59291392
59186176
59166208
59209216
59238912
59223808
59185152
59178496
59166720
59184128
59258112
59288576
59225856
59220736
59175168
59201792
59245312
59259648
59244288
59224320
58939392
58687232
58757888
59099648
59978496
61255424
62799616
64519168
66084608
67382016
67708672
66328064
64060928
61423872
59596288
58842624
58637312
58791424
59006208
59227904
59385088
59437312
59475200
59500544
59446272
59439104
59554560
59601920
59522560
59568384
59571456
59600128
59652608
59666176
59663616
59665152
59705088
59744256
59750400
59737088
59794944
59882240
59967488
59984384
59999744
60012032
60079872
60150784
60289792
60304128
60297984
60260864
60366336
60479744
60574976
60598528
60713472
60892928
61025024
61114112
61179648
61326592
61492224
61602304
61691904
61718272
61799424
61868032
61905664
61874432
61867008
61906688
61862400
61778688
61697536
61585664
61517312
61415936
61314560
61122048
60955648
60777472
60623104
60547072
60473344
60330240
60194304
60093184
60011520
59896576
59823104
59757056
59725824
59735296
59756032
59779840
59700736
59638784
59608576
59678976
59615232
59584768
59619840
59618304
59605248
59534080
59567360
59704320
59764736
59816704
59830016
59808256
59739392
59745536
59723520
59770368
59800320
59843840
59836416
59822592
59791104
59786240
59857152
59930368
59975680
59972608
59896832
59854848
59835136
59834368
59889408
59853568
59911168
59865344
59780352
59808256
59877888
59832832
59804928
59657216
59627776
59675648
59771392
59893760
59954432
59919360
59805696
59719680
59709952
59742208
59806720
59740416
59674624
59810816
59834880
59782912
59817472
59780864
59730944
59758592
59755520
59771904
59785728
59865088
59904768
59822848
59785216
59734528
59768576
59809280
59861248
59836928
59836672
59801856
59803136
59884800
59891456
59867392
59885824
59872000
59829504
59826944
59875584
59816192
59837696
59917056
59868160
59880960
59851520
59827968
59831296
59895808
59955200
59898624
59889664
59855616
59892480
59923712
59965952
59955200
60036864
60071168
60086272
60139264
60203008
60174848
60103168
60160256
60241664
60347136
60483328
60498176
60446720
60424192
60420096
60425472
60400640
60386304
60338176
60262912
60162816
60141568
60097536
60019200
60023552
60040192
59989504
59882752
59939584
60017920
59961856
60018432
60012544
60015872
59921664
59828480
59891456
60041984
60080640
60082176
60066560
59987456
59758592
59557888
59531520
59789312
60439552
61527040
62833920
64263936
65634304
66468352
66355456
65000192
63297280
61445376
60222464
59506944
59252736
59313152
59424256
59562752
59752192
59917312
60002560
60079872
60137984
60178176
60205824
60203264
60224256
60253440
60314880
60326144
60325888
60379136
60440576
60445952
60461568
60501248
60511232
60507136
60541184
60576768
60567040
60564224
60546560
60569856
60738560
60811520
60801792
60876544
60931840
60943104
60964096
61015040
61114112
61202432
61239040
61283584
61415680
61555200
61624832
61704192
61768960
61809152
61952000
62032384
62080000
62113792
62115328
62082048
62080256
62074112
62023936
61968128
61851392
61718016
61630720
61449728
61413120
61312768
61209600
61088512
60957440
60783104
60642560
60553472
60472832
60429056
60384512
60324096
60255488
60238592
60202752
60164608
60149504
60135936
60113408
60121344
60093440
60072704
60067584
59991296
60055808
60098048
60120832
60125952
60161280
60195840
60108032
60107520
60135168
60166912
60237568
60313088
60313344
60300544
60280832
60275200
60271616
60259328
60262144
60238848
60228608
60212736
60186368
60169472
60229376
60224256
60158976
60127744
60124416
60094208
60138240
60119552
60120064
60099328
60076032
60040192
60023808
60049152
60009728
59981312
60013824
59976192
59916800
59948288
59913472
59908864
59956480
59990784
59947008
59896576
59908608
59924736
59913728
59888896
59905024
59899648
59885568
59908864
59937536
59929600
59909120
59891968
59894016
59867904
59847680
59831552
59837184
59837184
59853056
59845632
59857920
59840512
59851008
59868160
59858688
59815168
59801600
59796736
59797248
59859456
59860992
59819776
59799552
59795968
59807488
59802880
59826432
59809280
59853312
59833088
59793152
59776512
59777024
59820544
59871744
59900928
59932416
59956992
59929344
59925504
59969280
59992064
60030720
60135424
60247808
60311552
60310272
60268800
60220928
60185856
60169216
60132608
60099072
60022528
59947264
59841792
59809792
59741184
59661312
59609344
59590144
59546624
59520256
59528960
59528192
59524096
59520768
59539712
59533824
59524352
59507968
59474432
59480832
59492864
59474432
59463936
59312128
59006464
58904320
59206912
59960064
61062400
62485760
64030464
65442560
66405376
66393856
65095936
63187712
60982784
59554560
58864896
58680064
58708736
58803456
59044608
59265792
59357440
59438848
59525376
59574784
59609600
59614208
59606528
59622912
59655936
59622912
59593728
59623680
59667456
59729664
59750912
59747584
59785472
59787776
59821568
59850240
59828480
59838208
59906048
59942912
59960064
59987712
60006144
60046080
60085248
60145920
60199680
60259328
60336896
60382976
60475648
60526848
60638720
60712960
60848640
60962048
61021952
61087488
61182208
61296896
61352960
61366784
61375744
61393664
61391360
61394944
61357312
61263104
61181440
61088256
60965888
60844800
60734464
60606464
60443648
60298496
60146176
60009984
59927808
59824640
59732224
59634176
59546624
59377920
59409152
59393280
59281920
59248384
59205632
59209984
59212032
59234048
59201536
59200512
59174912
59190272
59174656
59166720
59247104
59231232
59232512
59277824
59261952
59286528
59311616
59317760
59319296
59262208
59260928
59280128
59319296
59336960
59314176
59301120
59284992
59226624
59241216
59209216
59237120
59236608
59247872
59262720
59241472
59199232
59151104
59147520
59136768
59078400
59118848
59132416
59080704
59128320
59103232
59078912
59077120
59081472
59068928
59110656
59119360
59095296
58960640
59018240
59021568
59078656
59091712
59099904
59054336
59105024
59089664
59038208
59057408
59112960
59060224
59089152
59109632
59048960
58986240
58969088
59008000
59077888
59097344
59057408
59012608
58941952
59007488
59062272
59023616
59082752
59090176
59019520
58937344
58930432
58927872
58984704
58973440
58913024
58835456
58757632
58704640
58685184
58787328
58928384
58957312
58809344
58679808
58698752
58866432
58909952
58898688
58918656
58935040
58913792
58972928
58950912
58983424
58968832
58892288
58889472
58869248
59048704
59287040
59354880
59279104
59208960
59173376
59207680
59218176
59159552
59065088
59017984
58944768
58985472
58896640
58808576
58724864
58672896
58645504
58647296
58681344
58599680
58580480
58583040
58652928
58702848
58687232
58612992
58655488
58625792
58620160
58537728
58465536
58500864
58304512
58048256
57958400
58264320
59059712
60242432
61719808
63421696
65047808
66232832
65866240
64400640
62499840
60324864
58910720
58141184
57780992
57851904
57978624
58087936
58230784
58369536
58451200
58525696
58578944
58635776
58669056
58726400
58785280
58845952
58937856
58932480
58836480
58796032
58901760
58884864
58876928
58976768
58901760
58906880
59016448
59083264
59095296
59096832
59113472
59190016
59222016
59235840
59292672
59271936
59334912
59468288
59484160
59508480
59499520
59548160
59691776
59848448
59905024
59974144
60003584
60049408
60101632
60143104
60182528
60259328
60327680
60373248
60346880
60316928
60216320
60147456
60131840
60092672
60017152
59968768
59927808
59822848
59631872
59497728
59484160
59403520
59293184
59160064
59107328
59046912
58902272
58749952
58634752
58586112
58540544
58518272
58536960
58546688
58483200
58421248
58379776
58433792
58513920
58489600
58550272
58628864
58657280
58642176
58551040
58539776
58597120
58586112
58617600
58625024
58561280
58586368
58627328
58616576
58588160
58511360
58500864
58515968
58492160
58450688
58473472
58502400
58460160
58442240
58431488
58461440
58404864
58390272
58454016
58464000
58469120
58448896
58356736
58300416
58321152
58376960
58569728
58594048
58554368
58571776
58583552
58604288
58522880
58600448
58636800
58535936
58328064
58131968
58098432
58162432
58283264
58363904
58327296
58365184
58390784
58385664
58396928
58443520
58406400
58349824
58350336
58463488
58471936
58439936
58413056
58389760
58449920
58536704
58589440
58642688
58343168
58074880
58234112
58230528
58346496
58485504
58360576
58219008
58174976
58113024
58126080
58251776
58374144
58368000
58424576
58544640
58595328
58599424
58630400
58650880
58452736
58378496
58426368
58540032
58663680
58788352
58937856
58888448
58687744
58605312
58611968
58714624
58742272
58523904
58215168
58181376
58283264
58345984
58292992
58218240
58176256
58160384
58215424
58174208
58172416
58483200
58769664
58606848
58256128
58014720
58085376
58199040
58276352
58230016
58126080
58151168
58147840
58162688
58531584
59215616
60046336
61209856
62915584
64911360
66070528
65655040
63810048
62044672
60385280
59139328
58212608
57495552
57279488
57547520
57897472
57890304
57828608
58010368
58193920
58285056
58286080
58283520
58353664
58368512
58543616
58823936
59011072
58896128
58730240
58563840
58514944
58871296
59268608
59060480
58687744
58445312
58526464
58766592
59072512
59329280
59262208
59013120
58910720
58955520
58992128
58995712
59246848
59677440
59664128
59701504
59939328
59727360
59364608
59387648
59649024
59849472
60142592
60489472
60732160
60450560
60066304
60102656
60241920
60251136
60280064
60621056
61038336
61237248
60811008
60292096
59906304
59756032
59909888
60129280
60148224
59999744
59609856
59308032
59133952
59109888
59117056
59046144
58987520
58999296
59042816
58931200
59027712
59286528
59328000
59121920
59052288
58817280
58569984
58679040
58961664
58960640
58777088
58614272
58691584
58920448
59125760
59236864
59179520
59040256
58986240
58951936
58930432
59130368
59299072
59052288
58755840
58821888
59000576
59007232
58967296
59089664
59110144
58953984
58722304
58523648
58503168
58666496
58712320
58788352
58968832
58982912
58969600
59082752
58931712
58620160
58534656
58431488
58597376
58907904
58827776
58457856
58379264
58493696
58646016
58741760
58910720
58956288
58723328
58425344
58426368
58581760
58709760
58778112
58930432
58948608
58750720
58564864
58569216
58576896
58467840
58381312
58655232
58812160
58558976
58365440
58384640
58563328
58769920
58887424
58829824
58605824
58352896
58267904
58646528
58892288
58769920
58516480
58364928
58411008
58564864
58628608
58769152
58898432
59066880
59456512
59663872
59481600
59092736
58746880
58569984
58676224
58803200
58743296
58578432
58595584
58599424
58321920
58022144
58152192
58263040
58391296
58554368
58654976
58439168
58172928
58264832
58337792
58352128
58374144
58637312
58848768
58694656
58188544
57815040
57538048
57466624
57923072
58916864
60202752
61689344
62965504
64460544
65382656
65057280
63849728
62291712
60342016
58748672
57964544
57597440
57197056
57343744
57559808
57556224
57539328
57779968
58032640
58202880
58614528
58853632
58810112
58443520
58159104
58243328
58460672
58905856
59137024
58732544
58297088
58282496
58332672
58358016
58570240
58669056
58667776
58724352
58743552
58736640
58670080
58808064
59065856
59260416
59300864
59291136
59324672
59236096
59195648
59131136
59244544
59377664
59710464
59854336
59714048
59577856
59610368
59757568
59785216
59843072
59949824
60011520
60121344
60253184
60187392
60196352
60237568
60136448
60112384
60049408
59782656
59745280
60103424
60500992
60136192
59290368
58969600
58727424
58692096
58792960
58900736
58888192
58764800
58646272
58634240
58592768
58445568
58444032
58651648
58700032
58409728
58319104
58491392
58645248
58787840
58836224
58635776
58353152
58394624
58547712
58673408
58806528
58663424
58624000
58681600
58760192
58829568
58786816
58686464
58718208
58843392
58919680
58919168
58876672
58819072
58630912
58589440
58612480
58536704
58617088
58672640
58573056
58425344
58362624
58533120
58631680
58626304
58609152
58586880
58595072
58584576
58735104
59066880
58956032
58507008
58432000
58280448
58085888
58072320
58319872
58319616
58214656
58299392
58371840
58426112
58365696
58310144
58298368
58309632
58430464
58480896
58644480
58800640
58744064
58849792
58799104
58251520
58112256
58018048
58101248
58100736
58084608
58101504
58257152
58345728
58513920
58458880
58364416
58302720
58295296
58462720
58822656
59380480
59392000
59037696
58507776
58499840
58536448
58164480
58203648
58516736
58550784
58413056
58217216
58200320
58289152
58268928
58145536
58220544
58204928
58144256
58169600
58187520
58303744
58672640
58694912
58057728
57670912
58008320
58121216
58231040
58256384
58025728
57869056
57641472
57699584
58073344
58682368
59757312
61342976
63110656
64822528
66019072
65767424
64196608
62153728
60221184
59118336
58482176
58133248
57724672
57085952
57211136
57482752
57595136
57884160
58111488
58228480
58374656
58338048
58466560
58517248
58521600
58452480
58474496
58568704
58512384
58537728
58546944
58627840
58664448
58641152
58562560
58584064
58754560
58759168
58789376
58896640
58907904
58865664
58970624
59089152
59036672
58909184
59079168
59209472
59189760
59083008
59164160
59288320
59341568
59623936
59883776
59835648
59805440
59849728
59928576
59976448
59985152
60069888
60196352
60295680
60221952
60087296
60080128
60105984
60062976
59961856
59940608
59974400
60215552
60072960
59693824
59171584
58872064
58787840
59134976
59142912
58840832
58760448
58727424
58702080
58604032
58612480
58635776
58592000
58574848
58592512
58548992
58490368
58659072
58805504
58796800
58780416
58904064
58985728
58912512
58788352
58704896
58817024
58822912
58709248
58777088
58791424
58758144
58914304
59010304
59009792
58993920
58910464
58962688
59099136
59072512
58944000
59138048
59434496
59342336
58995968
58710272
58595840
58580480
58685440
58794752
58796288
58816256
58785536
58777088
58757632
58852608
58885888
58823936
58842624
58969088
58961152
58935808
58797312
58689280
58813696
58965248
58960128
58908672
58856192
58851584
58735872
58848256
59247616
59341568
59064832
58778880
58558208
58505728
58688256
58859776
58942720
58735104
58822400
59036928
59102208
58964992
58971648
59024640
59230976
59436800
59403520
59415552
59325184
59202816
59174144
59200256
59345152
59271936
59130880
59018240
59093760
59247616
59149568
58856704
58955520
59137792
59174656
59023872
58887168
58791168
58793216
58821888
58897920
59036672
59006976
58977280
58978048
58967552
58897408
58678016
58520576
58670080
59120896
59915520
61073664
62459136
64012288
65317376
66015232
65495040
63920128
62237952
60378368
59325184
58689280
58298624
58269952
58405632
58508800
58537472
58635520
58795776
58875392
58960384
59028736
59048448
59096576
59142400
59213568
59248128
59283968
59303680
59302400
59298816
59335936
59331840
59301632
59281664
59386624
59481856
59490560
59456256
59496192
59543296
59515648
59595776
59761920
59783168
59821568
59866368
59886848
59975680
59996928
60054272
60181504
60220416
60239360
60441344
60589312
60630016
60683264
60774144
60908032
61009408
61001728
60962816
61029888
61145600
61073408
60969728
60896768
60867072
60872192
60770560
60683264
60604928
60499456
60380160
60258560
60108288
59951104
59840000
59794432
59659520
59493632
59503104
59463936
59398656
59346944
59333120
59330816
59273472
59214080
59242496
59300352
59313664
59303168
59279616
59338240
59400192
59386368
59400960
59534080
59567872
59555328
59531264
59525376
59622144
59611392
59631360
59678976
59668992
59627264
59612672
59667200
59679232
59639808
59648768
59632128
59625984
59549184
59537152
59588864
59583744
59581440
59538176
59537664
59589376
59574272
59543040
59546880
59541248
59490304
59481600
59509760
59492864
59448576
59446784
59443712
59441408
59411456
59453440
59459328
59488000
59522048
59464960
59457792
59447296
59464704
59507456
59521280
59483136
59481600
59481600
59479296
59524608
59567872
59652096
59702784
59631872
59595776
59632128
59776768
59880448
59850240
59919616
59920384
59828992
59789568
59751424
59816192
59871744
59770624
59625472
59576064
59549184
59461376
59411712
59369472
59375104
59358208
59358464
59372032
59337472
59362816
59393536
59372544
59339520
59353344
59397376
59410688
59376640
59358464
59300096
59260416
59087872
58851072
58762752
59171840
60096768
61350144
62906368
64674816
66260992
67344128
67185408
65759744
63942144
61794560
60086528
59219968
59002624
59141376
59225344
59312640
59437312
59479552
59493376
59536128
59618816
59654400
59659008
59687168
59786752
59853312
59868672
59866880
59842816
59872000
59924480
59998464
60043264
60025088
60084736
60122880
60122112
60158976
60109056
60109568
60143872
60209920
60287232
60300800
60344576
60453376
60535296
60568576
60665600
60828928
60963328
61053440
61130240
61185024
61235712
61384704
61486848
61570304
61673728
61717504
61709312
61785856
61849088
61930240
62054912
62061568
61968384
61848064
61719552
61626624
61573888
61540096
61426432
61249280
61103104
60961792
60761344
60630528
60512512
60382976
60279296
60190720
60151040
60097536
60040448
59978752
59907072
59890176
59865856
59861760
59841280
59851776
59831296
59863808
59884288
59894016
59922432
59951616
59988992
59981568
59988480
60091648
60285440
60244992
60078848
59980800
59953408
59973376
59974656
59936768
59930880
59975424
60060928
60114176
60125184
60116480
60154112
60097280
60031744
60014848
59990016
59975936
60002560
60001024
60023296
59999232
59995392
59933952
59930368
59883776
59781376
59800832
60014336
60157440
60113664
59896832
59768832
59761408
59773696
59825664
59811072
59773696
59841280
59900928
59930880
59883008
59870976
59864576
59947776
60070400
60100608
60046080
60006912
59992832
60028416
60059136
60087552
60186624
60215552
60218880
60210688
60155904
60170240
60271872
60331776
60235008
60121344
60020224
59906048
59819776
59832832
59816192
59779072
59744000
59705600
59697408
59684608
59694080
59668992
59611136
59625728
59626496
59610112
59642368
59697152
59695104
59688192
59683840
59590656
59557888
59466752
59269632
59126016
59339776
60003072
61138176
62726912
64465152
66216960
67492352
67582976
66355712
64602880
62502400
60637440
59552256
59143168
59249408
59323904
59397632
59542272
59682048
59683328
59702016
59849216
59904000
59974144
59940608
59931392
59988480
60044032
60071680
60112640
60118784
60136704
60167168
60244992
60316160
60193536
60116224
60106752
60115200
60159488
60178688
60220160
60270080
60254208
60273920
60416256
60645632
60888320
60893696
60855296
60841984
60951040
61157888
61313792
61323776
61309952
61253120
61250304
61362176
61487104
61629184
61792256
61856768
61892352
61922048
61895680
61805824
61796608
61754624
61773824
61750528
61679872
61571072
61452288
61242112
61076224
60948736
60813056
60712192
60735488
60655872
60388864
60259584
60198144
60102912
60075008
60024064
59971072
60005376
59967488
59916288
59942656
59930112
59969280
59870720
59825664
59887872
59955712
60020992
60069120
60106496
60163328
60227840
60228352
60175104
60166400
60091136
60064768
60032256
60125696
60176128
60230400
60286208
60263936
60241408
60229120
60269312
60272384
60223488
60195328
60235520
60199936
60180480
60155392
60122880
60153344
60096512
60064512
60140288
60041472
59971328
59990016
60104704
60168192
60163840
60133632
60041472
59945728
59975680
59954432
60012544
59991040
59971840
60011008
60004352
59977728
60026624
60086272
60228608
60150784
60067584
60082944
60117248
60098816
60018944
60013568
60114944
60168960
60213760
60321792
60436992
60431360
60397568
60416512
60510208
60519424
60487936
60382208
60208640
60086528
60058880
60091392
60104192
60056064
59993088
59922176
59847680
59907328
59888128
59822336
59818496
59800576
59845376
59870208
59884032
59836160
59821312
59787776
59768576
59730176
59731712
59689216
59428864
59361024
59663872
60332800
61460224
63056640
64831488
66602496
67785728
67680256
66163712
64371200
62280448
60711680
59715584
59182848
59253504
59437056
59506176
59565312
59708160
59806464
59882752
59980800
59965184
59936512
60010752
60171264
60317184
60247296
60103680
60041216
60080384
60118784
60144128
60231936
60285440
60424704
60496896
60506368
60414976
60353280
60388352
60446208
60507392
60571392
60641792
60721920
60739840
60765952
60932864
61051648
61140736
61253888
61306624
61303040
61327104
61458944
61588992
61704704
61765888
61795328
61950208
62103552
62125056
62100224
62051072
62002944
62082560
62154752
62095104
61999104
61910272
61870848
61744640
61598464
61475072
61364992
61180928
60978688
60870400
60791552
60590848
60461824
60438528
60410624
60398592
60233216
60075008
60077056
60096000
60069120
60102144
60125696
60093440
60040960
60059904
60084736
60082688
60097536
60102912
60124416
60117760
60129792
60199168
60293376
60327680
60298752
60323072
60259840
60249856
60349952
60278784
60268544
60228352
60168192
60163072
60172288
60207104
60198912
60216576
60187136
60173568
60124160
60112896
60073216
60079360
60099840
60099840
60019200
59991296
60006912
60007424
60009472
60002560
59986688
59979264
59981824
60005120
59999488
59985408
59933184
59922432
59962880
59983872
59983104
60010496
59984896
59922688
59917056
59965440
60024832
60047360
60067840
60109056
60168192
60187648
60168960
60158208
60175104
60207872
60244736
60352256
60403200
60412672
60465920
60443136
60464384
60531200
60499712
60399104
60326656
60259072
60172800
60106752
60078080
60057856
60016384
59926016
59875072
59897344
59915008
59910656
59896832
59893248
59899392
59901440
59907072
59885568
59887360
59935232
59946496
59937024
59868416
59648000
59442432
59531776
60092160
61059840
62399488
64054784
65837568
67291904
67958016
67183104
65513728
63452416
61379584
60110336
59448576
59363584
59479040
59566336
59670272
59795200
59916800
59983872
60053760
60061440
60039424
60076544
60119296
60167424
60206848
60186880
60187648
60195584
60222720
60215808
60215808
60304640
60384768
60420096
60478720
60489472
60477440
60449792
60473088
60566528
60622080
60628224
60667392
60715520
60817408
60900608
60959488
61013504
61095936
61178112
61288192
61372928
61490944
61594368
61689600
61786112
61818624
61888256
61965312
61989888
61990912
62013952
62043904
62035712
62014208
62007808
61997312
61951744
61828096
61676288
61531648
61409024
61239296
61062144
60972544
60879616
60718848
60587008
60460544
60346880
60271872
60330496
60288256
60204800
60187904
60108288
60045312
60071168
60145152
60123392
60125952
60070656
59942656
60002048
60069632
60117504
60155136
60124928
60152064
60173568
60195584
60207360
60213504
60213504
60210176
60213248
60265472
60308480
60307456
60296448
60275712
60221952
60217856
60196608
60271616
60254208
60174848
60169984
60206336
60165888
60152576
60160768
60103168
60109312
60140544
60028416
59982592
60119808
60117248
60100864
60085248
60086272
60064768
60065280
60137728
60211200
60232960
60135936
60083200
60183808
60238848
60182272
60135680
60096768
60040448
60021248
60013824
60055296
60103680
60189952
60172800
60162304
60203520
60192768
60239104
60281344
60329472
60331520
60335360
60405504
60462848
60468224
60410880
60376832
60331520
60303360
60212992
60160000
60061440
59936512
59959296
59960064
59939328
59959808
59942912
59953664
59922432
59867648
59987968
59978240
59872000
59909376
59883008
59864320
59849216
59884032
59815424
59752960
59774720
59624448
59512832
59758080
60424192
61307904
62522112
63792896
64965120
65682176
65795072
64679936
63255808
61743104
60567808
59710976
59147520
59148032
59270400
59407872
59530240
59636224
59763200
59928832
59993600
59913216
59972096
59948288
59953664
60032512
60069632
60087296
60094208
60083712
60082944
60180480
60248576
60160256
60153088
60316928
60386816
60237312
60355840
60382208
60398848
60486400
60515840
60572928
60648960
60638976
60775424
60796672
60814336
60901120
60962560
61070848
61180928
61371392
61650688
61895168
61917952
61849600
61740800
61665024
61733120
61777664
61792512
61840384
62130432
62193664
62108416
61905152
61873152
61766656
61647360
61531904
61416192
61366784
61160448
60980224
60870400
60754688
60649216
60472576
60277760
60294912
60398080
60486912
60493312
60395520
60108800
59837696
59855360
59962368
60006656
60017408
60030720
60103680
60103680
59979264
59981056
59999488
59985152
60035840
60116480
60168448
60101888
60099072
60110592
60219648
60273920
60226048
60279040
60328960
60337408
60351744
60397312
60381184
60318976
60306432
60349696
60363520
60272128
60166400
60221184
60239872
60204032
60183040
60146688
60203264
60203008
60207616
60217600
60178688
60234752
60239872
60239872
60232192
60180224
60164608
60185600
60240128
60316416
60454656
60517632
60527104
60514048
60302848
60208896
60363264
60492800
60509440
60348416
60210432
60239104
60293632
60523776
60668416
60695296
60516352
60537088
60633856
60668160
60745216
60737024
60546816
60298240
60168960
60224000
60328704
60424960
60478464
60476160
60373504
60192000
60063744
60142336
60357376
60458240
60399872
60270080
60179968
60123648
60164096
60286720
60301568
60262400
60092928
60079360
60462336
61261568
62390016
63502848
64637440
65714176
66006016
65377792
64152320
62742784
61414400
60456960
59843584
59617792
59625216
59710464
59752448
59802880
59903744
59989760
60103168
60251136
60376576
60398080
60350464
60336128
60298752
60146176
60174336
60346624
60386560
60348160
60368896
60438528
60443136
60474880
60499712
60576512
60624128
60593920
60497664
60535040
60596480
60644352
60709888
60751616
60717824
60729856
60902400
60971264
60926720
60931584
61042432
61131520
61185024
61250560
61331712
61423360
61436672
61461248
61557504
61625344
61617920
61605888
61616640
61553152
61474304
61390592
61345536
61262848
61208320
61032448
60875264
60803328
60652800
60503808
60413696
60304128
60175360
60083200
59966208
59883264
59797248
59687424
59635712
59651584
59612672
59631872
59599360
59497728
59522816
59555840
59514368
59508736
59557632
59623424
59653632
59639296
59657472
59750144
59725824
59681792
59686400
59639296
59639808
59729664
59821568
59823360
59780608
59831296
59824128
59776512
59705600
59677952
59613184
59638272
59614208
59578368
59602432
59589120
59552000
59508480
59479808
59523840
59528448
59443968
59414016
59435520
59492608
59481344
59452416
59444736
59400704
59352320
59351040
59415040
59448064
59390208
59373824
59362560
59317248
59318784
59277312
59360256
59419648
59449600
59405056
59392000
59404800
59389440
59384832
59415552
59417088
59474176
59508736
59493120
59412736
59446784
59447040
59432704
59395328
59407616
59502336
59590912
59696128
59816704
59802368
59846144
59907072
59912192
59873536
59833344
59779840
59679232
59614208
59510016
59396608
59328512
59325184
59410688
59307520
59311360
59259648
59171584
59188736
59285760
59149824
59061760
59175936
59332608
59321600
59220224
59217920
59212288
59187200
59147776
59109120
58874112
58711296
58745600
59208448
60071168
61277440
62886912
64517888
65689600
66148096
65519360
64258560
62556160
60589312
59388160
58682368
58439168
58596096
58774784
58883072
58991616
59074048
59096064
59117568
59187200
59224320
59317248
59420416
59398144
59349504
59230720
59254016
59444480
59519232
59514368
59388672
59365120
59449344
59599360
59674880
59636736
59563264
59551232
59535872
59569152
59664640
59766528
59694848
59703808
59754752
59850240
60057344
60125952
60169728
60240128
60323584
60383744
60385024
60454912
60596736
60881408
60971520
60985344
60948736
60945408
60998144
61105152
61150208
61083136
60982272
60896768
60875776
60926720
60886784
60669696
60433152
60303104
60182272
60168192
60072448
59829248
59670528
59501056
59574784
59652608
59456000
59144704
58856192
58910464
59295744
59272704
59127808
59084800
59034880
59071488
58984960
58846720
58838272
58911488
59051264
59175680
59169024
59124992
59089408
59049472
58947840
58880512
59124992
59314432
59296256
59231232
59168768
59181312
59264768
59340800
59408128
59414784
59353600
59318272
59307008
59286016
59238656
59238400
59229952
59217408
59243520
59278080
59223808
59223040
59218944
59220992
59185664
59075072
59084288
59176960
59148800
59139328
59150080
59165440
59152640
59104768
59071744
59067392
59115520
59089664
59085568
59060736
59051008
59024640
59023104
59065856
58967040
58895104
58954240
59085568
59083008
59035136
59036160
59042304
59006720
59040256
59130112
59172864
59124224
59116544
59115520
59210240
59304192
59419136
59465216
59476224
59473408
59436544
59371520
59397376
59413760
59317504
59248384
59185152
59145216
59127552
59115008
59097088
59013888
58955520
58925056
58959360
58958080
58913536
58810880
58873600
58880512
58870784
58926592
58965504
58995200
58946048
58947584
58927872
58827264
58647040
58415872
58471168
59009792
59921408
61175808
62780416
64468480
65918976
66705152
66139392
64475392
62377728
60271872
59020288
58413568
58269184
58379776
58510848
58623232
58723072
58901248
59010560
59044864
59084800
59055360
59064064
59030016
59031552
59098624
59195136
59285248
59297280
59249664
59201536
59194368
59226368
59205632
59278336
59449088
59475200
59453440
59386880
59395584
59572480
59723776
59666944
59654400
59676928
59790848
59851520
59888896
59927808
60040192
60175104
60329216
60434432
60573184
60706560
60740352
60845568
60928256
60946944
61071872
61152512
61243392
61321728
61347840
61339904
61372928
61307392
61086976
60939008
61026816
61121024
60958464
60728832
60574208
60368640
60185856
60089088
59954432
59819520
59634688
59480576
59369984
59261952
59179008
59095296
59022080
59150336
59264768
59200512
59126528
59091968
58917632
58880000
58985472
59109376
59124736
59121408
59084288
59056640
59031808
59030528
59088640
59143936
59141632
59089408
59053312
59235328
59392512
59294208
59112960
59022848
59066368
59284736
59363584
59176960
59368192
59525632
59546368
59473408
59366144
59371520
59336960
59202816
59169024
59150080
59239680
59277312
59225344
59186688
59178240
59102720
59077120
59084544
59255296
59281152
59252736
59189760
59129600
59086592
59086848
59139328
59177472
59194112
59128832
59100928
59085056
58957312
58982912
59173376
59242752
59238656
59102720
59063808
59033600
58965760
59011840
59166720
59202560
59295744
59276800
59306496
59262976
59198208
59219456
59253760
59267840
59377920
59465472
59507712
59612928
59616256
59532800
59536384
59586560
59508736
59406848
59383296
59402240
59373312
59281152
59224064
59084544
59058688
59144448
59033856
58944768
59041792
59068672
59112960
59081728
59040768
58978048
58966016
59126016
59143936
59077120
59073536
59032064
58936064
58747648
58511104
58379776
58765312
59634688
60891648
62608640
64297216
65686272
66571520
66419456
65116160
63313920
61128704
59580416
58777856
58472192
58488320
58617088
58802176
58932736
59081728
59141376
59232768
59314688
59291904
59290112
59333376
59378688
59344896
59338240
59430400
59532800
59607040
59559680
59571712
59537408
59475200
59359744
59574016
59857664
59787520
59761920
59788800
59788288
59814400
59855360
59898368
59968512
59933440
59928064
60100352
60198656
60206336
60299776
60520448
60666112
60720384
60776192
60857088
60942592
61010176
61159168
61235456
61367552
61506560
61570560
61612800
61634816
61605888
61523200
61499904
61443072
61340928
61168128
61044992
60953344
60824320
60696320
60523520
60429824
60362240
60213504
60031232
59957248
59864576
59751168
59729152
59656704
59552256
59528704
59511808
59504384
59529984
59519488
59500288
59485952
59457536
59416832
59508736
59585024
59532288
59559168
59667200
59751936
59676672
59605504
59651584
59631872
59704832
59675136
59674112
59746560
59721984
59685632
59671552
59731456
59709696
59571200
59616768
59760128
59647232
59652864
59846912
59880192
59853568
59730688
59724544
59899136
59883264
59795456
59715072
59651072
59600128
59628032
59592704
59609856
59613184
59569920
59513856
59435520
59461120
59593472
59561984
59535616
59526912
59422976
59389440
59499008
59633152
59580928
59491072
59546880
59524864
59411968
59400192
59339776
59220736
59115520
59304192
59401472
59329024
59351808
59410432
59456768
59465984
59452672
59483392
59499776
59445760
59468288
59563264
59645184
59769856
59728896
59698176
59785728
59813120
59724288
59632640
59534080
59797248
59713280
59548672
59513344
59635200
59499008
59404288
59288064
59242240
59293952
59290112
59342336
59332864
59219712
59164672
59203328
59231232
59334144
59424256
59365632
59344384
59436544
59336192
59177216
59143936
58941440
58848000
59219968
59966208
61006080
62303232
63738368
65127168
66061056
66114304
65025024
63325952
61303040
59912448
59063808
58727936
58885376
59028736
59121408
59241728
59398400
59507200
59495936
59464704
59647744
59696896
59687680
59703040
59619328
59618048
59640320
59591424
59654912
59714048
59825664
59845376
59820544
59852800
59830528
59825408
59889920
59901952
59969280
60044800
60033792
60054784
60108544
60129024
60217344
60280064
60291072
60320768
60424192
60567040
60655104
60686592
60773120
60935424
61150976
61251584
61261824
61329664
61372672
61370112
61486080
61635584
61650944
61640960
61667840
61628160
61562880
61513472
61423360
61295360
61299456
61105664
60947968
60895488
60832256
60694272
60512000
60403712
60201984
60186368
60232960
60206336
59981824
59738368
59593216
59767296
59828480
59781888
59755008
59731200
59622144
59459328
59521280
59536896
59554816
59586048
59731200
59522560
59503872
59976704
60073472
59957504
59618560
59421440
59403776
59535360
59705344
59760128
59730176
59548928
59380736
59650048
60033280
60068096
59928064
59845120
59422720
59316480
59641088
59724544
59688192
59652608
59400448
59330816
59454976
59670272
59853824
59632896
59376640
59499008
59561728
59661056
59614208
59514624
59419648
59433472
59416064
59345664
59221248
59273728
59733504
59846400
59642368
59536640
59326464
59264256
59353088
59370240
59405568
59460096
59470592
59520256
59473920
59358720
59315456
59358976
59587584
59774208
59683328
59729152
59746816
59551744
59407360
59515904
59634944
59559680
59568640
60074496
60068352
59906304
59735296
59432448
59399168
59882752
60052736
59825664
59721216
59664128
59614720
59517696
59389184
59225088
59110912
59206400
59439360
59531008
59387392
59155200
58988032
59201536
59386368
59316736
59197696
59141888
59323392
59420928
59300352
59337984
59110912
58749184
58649600
59001344
59940352
61326080
62796544
64249856
65466368
66306816
66136576
64891648
63360512
61314560
59790592
58845440
58644736
58796544
58958080
59032832
59189760
59334656
59293184
59341312
59701504
59827200
59824640
59782400
59695616
59693312
59702272
59730176
59800832
59824128
59804160
59813120
59868160
59894272
59874304
59904256
59939072
59957504
60069120
60117248
60112384
60120320
60169216
60260608
60318976
60362240
60399360
60404736
60526080
60665088
60680704
60688640
60794624
60931584
61070080
61219840
61348864
61419776
61493760
61554176
61632512
61695232
61733120
61784064
61814784
61730816
61732864
61727232
61702912
61677824
61587456
61456640
61309696
61178112
61021696
60825088
60752640
60673792
60540160
60448000
60350720
60226048
60145664
60065536
59984640
60011776
59958784
59915264
59912704
59941888
59904256
59841792
59868160
59908352
59954944
59950848
59883520
59921152
59976960
59987200
59998720
60018432
60055040
60099328
60117504
60097024
60084992
60140800
60209920
60247296
60191232
60138240
60121856
60077568
60081408
60111360
60147968
60104960
60039936
60049408
60055296
60113920
60092928
60026624
60016128
60012544
60025344
60000768
59965696
59983360
60020224
60018432
59959296
59966720
59923456
59909120
59934720
59973120
60029184
59983616
59895040
59917568
60001024
60009984
60008192
59997184
59999744
59977728
60006144
59986688
59999744
59890432
59829504
59920896
60010240
60010240
59997952
60044288
60145920
60209152
60223232
60219904
60206848
60166912
60197632
60274688
60354816
60384768
60360704
60349952
60323584
60314112
60299264
60251136
60221696
60093952
60060672
60043776
59947008
59887360
59845632
59802112
59767296
59795712
59800064
59812864
59784192
59813888
59803392
59765504
59772160
59799552
59783936
59856896
59883520
59893248
59811584
59543552
59374848
59515904
60064768
61124096
62490624
64042752
65623552
66961152
67679488
66968320
65250304
63210496
61140992
59946752
59364352
59277824
59385088
59434496
59581184
59737600
59846656
59924992
60007168
59989760
59953664
60018944
60076544
60084480
60131072
60167936
60203776
60199936
60223488
60233216
60262400
60291584
60312576
60317184
60358144
60396544
60430592
60448256
60481792
60549888
60651008
60712704
60738560
60795904
60847872
60932608
60952064
61028608
61113088
61161472
61240832
61336320
61456640
61557760
61634304
61714944
61795072
61905920
61981184
62017792
62070272
62099968
62138112
62170112
62107648
62072064
62035200
61936640
61897472
61817600
61715200
61646080
61511936
61352704
61216512
61084416
60975360
60904448
60811264
60714496
60649472
60563968
60543232
60502528
60428032
60390656
60376576
60363776
60401152
60387840
60399872
60410112
60460544
60495616
60517120
60560640
60613376
60631296
60618496
60621056
60634880
60655360
60669952
60703488
60709120
60712960
60699392
60674816
60688896
60684288
60667392
60664576
60663808
60656384
60632832
60583680
60597504
60626432
60585472
60529920
60510208
60467712
60456960
60448000
60466688
60460032
60429568
60401920
60374528
60398592
60392448
60370176
60359680
60327936
60354560
60355840
60336896
60311808
60284928
60301056
60309248
60249088
60252672
60286720
60281088
60253184
60238336
60235776
60240896
60271872
60348416
60403968
60431616
60457984
60486144
60485120
60474880
60500992
60549632
60598528
60631040
60665856
60647168
60616448
60638464
60665088
60617728
60557312
60516096
60429824
60344320
60300800
60246016
60124928
60090624
60099840
60006400
60026880
60087040
60117248
60119808
60069888
60035328
60018176
60042752
60045568
60011008
60028672
60058880
60017152
59945216
59739392
59557376
59670528
60288512
61320448
62667520
64235520
65838336
66919936
67272192
66345728
64715776
62663168
60916992
59883776
59366144
59334912
59506688
59671040
59810560
59944192
60041728
60119552
60188160
60230400
60235520
60275200
60273664
60292608
60298752
60275968
60319744
60364800
60385024
60370432
60354560
60369920
60398592
60433920
60453888
60491520
60523264
60560384
60640000
60682752
60704768
60785152
60810240
60811776
60891904
60966656
61030400
61099776
61178880
61254144
61325312
61387008
61452800
61530880
61676544
61794560
61876480
61929984
62025216
62080512
62098176
62119936
62099200
62081024
62013440
61952000
61875968
61817856
61742080
61703168
61600768
61469440
61360384
61247232
61137664
61013248
60906496
60808960
60689408
60592128
60518912
60430336
60370176
60301568
60315392
60380416
60356352
60310784
60316416
60318976
60313856
60314880
60347392
60369152
60404736
60502272
60542976
60549120
60504320
60477952
60496896
60503552
60448512
60447744
60454656
60477184
60485376
60484096
60498688
60439296
60464640
60484864
60439296
60408064
60414464
60422400
60397312
60415488
60427776
60370944
60352512
60378368
60370688
60355840
60351488
60340480
60294912
60307968
60325120
60298752
60251136
60213760
60211456
60203264
60156928
60088320
60124672
60194048
60227328
60236544
60218880
60190464
60208384
60211200
60248576
60252672
60231680
60182272
60155904
60222208
60342272
60434944
60518144
60522752
60496640
60531712
60571648
60598784
60681984
60777728
60780032
60718336
60708096
60754432
60777984
60764416
60754176
60643072
60603904
60563200
60505344
60338176
60179200
60184064
60172032
60161280
60144128
60205824
60183040
60286720
60344064
60287744
60184064
60121600
60155136
60167424
60184576
60131840
60131840
60232704
60091904
59863296
59810048
60251136
61131776
62431744
63960064
65609728
66988288
67723008
67224832
65629184
63577088
61487104
60219904
59586048
59504640
59691264
59889920
60136960
60304384
60411392
60497664
60522496
60599296
60610048
60563968
60590592
60648448
60657408
60735232
60788992
60820224
60843776
60826880
60839168
60900608
60916224
60986880
60989952
61013504
61088512
61037568
61052416
61144576
61255168
61324288
61363968
61306112
61268992
61398784
61466368
61513472
61595392
61718016
61816576
61890304
61974272
62042624
62156288
62230528
62293760
62451456
62564096
62588672
62563840
62540800
62507264
62514944
62521088
62506240
62443520
62385408
62287616
62177280
62118144
62044928
61922816
61801984
61699328
61593344
61486336
61360640
61213696
61140992
61095936
61070080
61044736
60987648
60941568
60933888
60918784
60948736
61006080
61051904
61038080
61015552
61050368
61133312
61192960
61154816
61084672
60994048
60945664
61015552
61084928
61091840
61097216
61098752
61119488
61171200
61169664
61154816
61157888
61158144
61167360
61147392
61100544
61059328
61081088
61108480
61082624
61054720
61067520
61029376
61015040
61017600
60997376
60976128
60958976
60950528
60957184
61038336
61101568
61079296
61066752
61034752
60884736
60788480
60801024
60811264
60759808
60757760
60783104
60789760
60783104
60805120
60811008
60797696
60802304
60742400
60760320
60811008
60832512
60875520
60919296
60944384
60929280
60918528
60921856
60943616
60997120
61103360
61225472
61287936
61269504
61215488
61164544
61062400
61036032
60976640
60943104
60919296
60816384
60697344
60611328
60592640
60549376
60502016
60503040
60467200
60463872
60487680
60483072
60512256
60528128
60532736
60598528
60640768
60614656
60610816
60514304
60358656
60155904
59905024
59755520
59869440
60424192
61504512
62931200
64509440
66348544
67757568
68317696
67419136
65628928
63390464
61379584
60240640
59667712
59596288
59715840
59872512
60026880
60171264
60279296
60324096
60361728
60410880
60441088
60463616
60485376
60480512
60496640
60527360
60542720
60582912
60631552
60619776
60614400
60576000
60563968
60617216
60610816
60640768
60695296
60717056
60831488
60851200
60882432
61041920
61113856
61142272
61164544
61203200
61236992
61243648
61303296
61428480
61504768
61549824
61578496
61648896
61685760
61792768
61927680
62076160
62171904
62197760
62210304
62218240
62201600
62168832
62132992
62123008
62076416
62059008
62003712
61919488
61839872
61702656
61485824
61405440
61351424
61270272
61144832
60996608
60953344
60934912
60949760
60973056
60804608
60637184
60657920
60657152
60659712
60698368
60743168
60798464
60828672
60801536
60738816
60664576
60704768
60789504
60858368
60861952
60873728
60926464
60974848
61011456
61007872
60940544
60902144
60833536
60702976
60688896
60688640
60667904
60626432
60633088
60651776
60664576
60641536
60609536
60607488
60620032
60621568
60585984
60572416
60566784
60553472
60556288
60538112
60508160
60405504
60336384
60336384
60361728
60396800
60397568
60457728
60528384
60526592
60475392
60417792
60379904
60337408
60320512
60341760
60396800
60434944
60507904
60555520
60598016
60667136
60673024
60603648
60624384
60685568
60693760
60700160
60763136
60781824
60752384
60764928
60758016
60666624
60588800
60538624
60485376
60443904
60380672
60300800
60269824
60255744
60199936
60164608
60169984
60192256
60203264
60185856
60174848
60176896
60166144
60185600
60182784
60156672
60126208
60103168
60073216
59945472
59761920
59746304
60155392
61022720
62280960
63708928
65269760
66474752
66905600
66196992
64729600
62949632
61197824
60199424
59576064
59398912
59515904
59703040
59857408
60027648
60146688
60258048
60328960
60388608
60453888
60460032
60490496
60534528
60495104
60455680
60481792
60536064
60552448
60559360
60571904
60625664
60680192
60700672
60737024
60787200
60814336
60857088
60894976
60957696
60994560
60990208
60978688
60981760
60960768
61058304
61212416
61317376
61376000
61442816
61536512
61634304
61706240
61818880
61931008
62026752
62089216
62162432
62188544
62178048
62155264
62139648
62189824
62220032
62254336
62254336
62145792
62026496
61817088
61660672
61633024
61579776
61499392
61423872
61296384
61180672
61103616
61019648
60916480
60839936
60748800
60689408
60663552
60634624
60622080
60626944
60647168
60627200
60632064
60632320
60622592
60637952
60670720
60728320
60776704
60792832
60779520
60683264
60708864
60785920
60786176
60828416
60789760
60706816
60726784
60750848
60740096
60719872
60725504
60766720
60758528
60709632
60650240
60636160
60622080
60635648
60625664
60615168
60578048
60533504
60493056
60525824
60552960
60526848
60513792
60487936
60464128
60449536
60450304
60415744
60404480
60402176
60420352
60495104
60484352
60431872
60414976
60397568
60403968
60407808
60423168
60445440
60454400
60481024
60529664
60586496
60640256
60649472
60668928
60687872
60696576
60763136
60833280
60897792
60914432
60915200
60929280
60895232
60884992
60843264
60807168
60749824
60672256
60616960
60526336
60419584
60367616
60376064
60365824
60368384
60367360
60367104
60357888
60354048
60356608
60352256
60354560
60312320
60283392
60324096
60315904
60287488
60263168
60174592
59978496
59918080
60237056
